time,signal
0.0,1.134142563264592
0.004001600640256103,1.0769281575051128
0.008003201280512205,0.8185266934439387
0.012004801920768308,0.5324566411913549
0.01600640256102441,0.18766209730012748
0.020008003201280513,0.07326733361243143
0.024009603841536616,-0.003233128564945141
0.028011204481792718,-0.12415342565560081
0.03201280512204882,-0.2246917604400811
0.03601440576230493,-0.10914863876385272
0.040016006402561026,-0.18865552538662086
0.044017607042817125,-0.35667328373855595
0.04801920768307323,-0.277509757268776
0.05202080832332934,-0.23754606977680737
0.056022408963585436,-0.1781355292307342
0.060024009603841535,-0.28066009245703555
0.06402561024409764,-0.2626940557670385
0.06802721088435375,-0.24310538198098586
0.07202881152460985,-0.02666586843511584
0.07603041216486595,-0.10282435810313849
0.08003201280512205,-0.12445917827145116
0.08403361344537816,0.026051689496480575
0.08803521408563425,0.027095600499225776
0.09203681472589036,0.06568809246235735
0.09603841536614646,-0.03104201066555538
0.10004001600640257,0.07684573806790204
0.10404161664665867,0.1479054492645791
0.10804321728691477,0.13956895846011103
0.11204481792717087,-0.0520526351148902
0.11604641856742698,0.022511977396002553
0.12004801920768307,0.12937194595678025
0.12404961984793918,0.11000461888232976
0.12805122048819528,0.16870058287728754
0.13205282112845138,0.18653538797235442
0.1360544217687075,0.13701536699438635
0.1400560224089636,0.24713004037365113
0.1440576230492197,0.16393884434277928
0.1480592236894758,0.21159027035367334
0.1520608243297319,0.26077461520282497
0.156062424969988,0.2886699231583284
0.1600640256102441,0.24756205070185186
0.1640656262505002,0.22897905539522811
0.16806722689075632,0.30400660517056666
0.1720688275310124,0.2665100211171083
0.1760704281712685,0.2679875935461641
0.18007202881152462,0.3997603949176742
0.1840736294517807,0.3605821313349239
0.18807523009203683,0.4527476382972542
0.19207683073229292,0.4006824040689168
0.19607843137254902,0.37927010911076897
0.20008003201280514,0.37081494782489166
0.20408163265306123,0.4572064562968635
0.20808323329331735,0.4322423399409449
0.21208483393357344,0.33952493659611493
0.21608643457382953,0.36642291247963393
0.22008803521408565,0.504236450231112
0.22408963585434175,0.4068363218892552
0.22809123649459784,0.4268445220800308
0.23209283713485396,0.34370893232995303
0.23609443777511005,0.3446774365362829
0.24009603841536614,0.4159659243470782
0.24409763905562226,0.29632938075359216
0.24809923969587835,0.2105087862951288
0.25210084033613445,0.381086991117586
0.25610244097639057,0.41009314300685934
0.2601040416166467,0.17587402434438
0.26410564225690275,0.22235980275445288
0.26810724289715887,0.20204390052814786
0.272108843537415,0.27602901105750977
0.27611044417767105,0.17090517383771417
0.2801120448179272,0.21745196018785448
0.2841136454581833,0.2839480567676078
0.2881152460984394,0.17532989125983797
0.2921168467386955,0.184406292587773
0.2961184473789516,0.10862382254043877
0.3001200480192077,0.2139931771665052
0.3041216486594638,0.23300423092304046
0.3081232492997199,0.1935745626632988
0.312124849939976,0.0554893230454118
0.3161264505802321,0.107955282023817
0.3201280512204882,0.28615234972976705
0.32412965186074433,0.19332651250119876
0.3281312525010004,0.038979533037451816
0.3321328531412565,0.10567127508479962
0.33613445378151263,0.18012870071717718
0.3401360544217687,0.2999773956475625
0.3441376550620248,0.16243511097876687
0.34813925570228094,0.13733375700692785
0.352140856342537,0.27174210193109544
0.3561424569827931,0.1986909099943129
0.36014405762304924,0.09419603370316326
0.36414565826330536,0.16585111818090018
0.3681472589035614,0.21469004776311568
0.37214885954381755,0.2561010733721458
0.37615046018407367,0.20310797401908054
0.38015206082432973,0.11423038191946491
0.38415366146458585,0.24140189957335811
0.38815526210484197,0.20945796299609998
0.39215686274509803,0.1646014834239658
0.39615846338535415,0.12249929357606396
0.4001600640256103,0.3086964381368047
0.40416166466586634,0.287788360448877
0.40816326530612246,0.15560087355524205
0.4121648659463786,0.14563793138550013
0.4161664665866347,0.01687456134603341
0.42016806722689076,0.3299415676774754
0.4241696678671469,0.24311735591802786
0.428171268507403,0.13657887838563748
0.43217286914765907,0.29832092705935465
0.4361744697879152,0.2321067484431202
0.4401760704281713,0.3240158194456002
0.44417767106842737,0.11329265791380717
0.4481792717086835,0.12326430619644489
0.4521808723489396,0.24350503526357153
0.4561824729891957,0.2775098675750095
0.4601840736294518,0.07065473179310668
0.4641856742697079,0.16469867934806684
0.468187274909964,0.2757434519964192
0.4721888755502201,0.3630522779126249
0.4761904761904762,0.2832940307543958
0.4801920768307323,0.05723859602974424
0.4841936774709884,0.339963180154791
0.4881952781112445,0.28205481811349586
0.49219687875150064,0.1854340474982313
0.4961984793917567,0.08611645874653134
0.5002000800320128,0.35104057353143175
0.5042016806722689,0.39971468027969576
0.508203281312525,0.1634448510788108
0.5122048819527811,0.21523863045783515
0.5162064825930373,0.22407052292310484
0.5202080832332934,0.2935111810081241
0.5242096838735495,0.2823262542392877
0.5282112845138055,0.1657252030020895
0.5322128851540616,0.24010886834083264
0.5362144857943177,0.29721528748466025
0.5402160864345739,0.24335609087368937
0.54421768707483,0.21093642091816125
0.5482192877150861,0.17518860650320559
0.5522208883553421,0.20360053766054598
0.5562224889955982,0.3011852759597626
0.5602240896358543,0.16416260528213383
0.5642256902761105,0.2354255055871702
0.5682272909163666,0.28585684443776893
0.5722288915566227,0.3666008862613617
0.5762304921968788,0.17928565133269198
0.5802320928371348,0.3137254398771384
0.584233693477391,0.31733127822229673
0.5882352941176471,0.341822302353491
0.5922368947579032,0.42375876661261497
0.5962384953981593,0.3122823247898455
0.6002400960384154,0.2410675594632737
0.6042416966786714,0.29824631141410596
0.6082432973189276,0.24285740470743916
0.6122448979591837,0.1798922204794883
0.6162464985994398,0.29988254082957727
0.6202480992396959,0.37843060959611824
0.624249699879952,0.3071409869343816
0.6282513005202081,0.21647367857198122
0.6322529011604642,0.2710255213043628
0.6362545018007203,0.37903932485365055
0.6402561024409764,0.2990858703648628
0.6442577030812325,0.3486860031288312
0.6482593037214887,0.29259210447693984
0.6522609043617448,0.32159627783824185
0.6562625050020008,0.3105158932868564
0.6602641056422569,0.33840465426883287
0.664265706282513,0.29324379673599243
0.6682673069227691,0.267831757119695
0.6722689075630253,0.32256525350077414
0.6762705082032814,0.2579264796087552
0.6802721088435374,0.22685921044414148
0.6842737094837935,0.2657705273292008
0.6882753101240496,0.3612767575341317
0.6922769107643058,0.3792733774415332
0.6962785114045619,0.31091936636598894
0.700280112044818,0.4034880046937396
0.704281712685074,0.3479950937450993
0.7082833133253301,0.2648685522356205
0.7122849139655862,0.22435705712918796
0.7162865146058424,0.2832768854073188
0.7202881152460985,0.4082165447183629
0.7242897158863546,0.31497681284982687
0.7282913165266107,0.29372407416118124
0.7322929171668667,0.16785329609348945
0.7362945178071229,0.37942320417846676
0.740296118447379,0.30864576173104136
0.7442977190876351,0.15846950145094746
0.7482993197278912,0.24675018539319718
0.7523009203681473,0.30148411293881383
0.7563025210084033,0.3147852544445355
0.7603041216486595,0.2598258510051317
0.7643057222889156,0.3156381205840071
0.7683073229291717,0.4065254540296308
0.7723089235694278,0.29887383642806664
0.7763105242096839,0.23785894223564275
0.7803121248499401,0.22276498615036014
0.7843137254901961,0.315795395272243
0.7883153261304522,0.2698684931056145
0.7923169267707083,0.32957272092533135
0.7963185274109644,0.2933507792210766
0.8003201280512205,0.2154706588659326
0.8043217286914767,0.3629913336259366
0.8083233293317327,0.38709000907150515
0.8123249299719888,0.4270080606282875
0.8163265306122449,0.5556983003130064
0.820328131252501,0.9389541408192023
0.8243297318927572,1.22700001807579
0.8283313325330133,1.3558200362532864
0.8323329331732694,1.4536201164441531
0.8363345338135254,1.5281752484529627
0.8403361344537815,1.189660517274352
0.8443377350940376,0.8032256343772299
0.8483393357342938,0.5354874279059203
0.8523409363745499,0.3667914391487472
0.856342537014806,0.2826161015885325
0.860344137655062,0.1941089813631658
0.8643457382953181,0.03349387194361535
0.8683473389355743,-0.023971511572024918
0.8723489395758304,0.0690979546225314
0.8763505402160865,-0.012182132164366328
0.8803521408563426,-0.0850084430481074
0.8843537414965986,-0.003354517323882698
0.8883553421368547,0.09823799209567886
0.8923569427771109,0.04993772063938546
0.896358543417367,-0.02876208558340257
0.9003601440576231,0.1047857683078377
0.9043617446978792,0.08426711296997938
0.9083633453381353,0.2460485616289837
0.9123649459783914,0.13451633132311594
0.9163665466186475,0.22443146419614587
0.9203681472589036,0.2747301124028305
0.9243697478991597,0.31757003537850315
0.9283713485394158,0.1939189929368576
0.932372949179672,0.3617212827329306
0.936374549819928,0.3206103659772027
0.9403761504601841,0.32834370072502267
0.9443777511004402,0.20616057752854552
0.9483793517406963,0.23328007806919165
0.9523809523809524,0.4030846509912082
0.9563825530212086,0.3672212892418682
0.9603841536614646,0.36907702844015894
0.9643857543017207,0.29323086142360566
0.9683873549419768,0.3454529657203675
0.9723889555822329,0.40733582823181186
0.976390556222489,0.2638067897799889
0.9803921568627452,0.2685758917765358
0.9843937575030013,0.5174109462445425
0.9883953581432573,0.49730253121495477
0.9923969587835134,0.38477805726987935
0.9963985594237695,0.4156516147971454
1.0004001600640255,0.5008550820619959
1.0044017607042817,0.5762322177639403
1.0084033613445378,0.5298181265971982
1.012404961984794,0.45643387195103446
1.01640656262505,0.49676807316243465
1.0204081632653061,0.5376964984333095
1.0244097639055623,0.510709427151814
1.0284113645458184,0.5240920041809499
1.0324129651860745,0.5780513888355772
1.0364145658263306,0.5515087197751434
1.0404161664665867,0.5490574381280632
1.0444177671068429,0.523123573896608
1.048419367747099,0.4785288039915414
1.0524209683873549,0.6418539761819172
1.056422569027611,0.5496051139853584
1.0604241696678671,0.5032080372653054
1.0644257703081232,0.47418856349694366
1.0684273709483794,0.548282144800987
1.0724289715886355,0.48328231105418473
1.0764305722288916,0.44044271011168024
1.0804321728691477,0.36537354707729885
1.0844337735094038,0.4267423145914583
1.08843537414966,0.41749923725420185
1.092436974789916,0.3268368058634092
1.0964385754301722,0.3478323526628444
1.1004401760704283,0.2761996669514514
1.1044417767106842,0.3583654368044352
1.1084433773509403,0.3047470042030766
1.1124449779911965,0.2104947218463253
1.1164465786314526,0.29698759270754466
1.1204481792717087,0.3422686164599652
1.1244497799119648,0.23428961760995268
1.128451380552221,0.18069128531808734
1.132452981192477,0.19353749765942901
1.1364545818327332,0.26818497213180775
1.1404561824729893,0.2235804888715731
1.1444577831132454,0.17591868359775673
1.1484593837535015,0.17686628231771184
1.1524609843937577,0.32494693659262386
1.1564625850340136,0.13804807390734292
1.1604641856742697,0.24508115115715887
1.1644657863145258,0.1806145724372255
1.168467386954782,0.23482931681609134
1.172468987595038,0.23092402541340978
1.1764705882352942,0.2040963225966943
1.1804721888755503,0.18170298171419874
1.1844737895158064,0.17782844687633556
1.1884753901560625,0.3656534965699299
1.1924769907963186,0.23984257654675267
1.1964785914365748,0.14974630111378825
1.2004801920768309,0.23657527784593035
1.2044817927170868,0.3411760712781572
1.208483393357343,0.2008780523437077
1.212484993997599,0.17357894874382185
1.2164865946378551,0.10789672821205522
1.2204881952781113,0.2234617196878767
1.2244897959183674,0.1565873885663393
1.2284913965586235,0.23818362304105295
1.2324929971988796,0.13513136603064888
1.2364945978391357,0.18770221846559176
1.2404961984793919,0.24429013161961569
1.244497799119648,0.14999477991228535
1.248499399759904,0.17773667734574558
1.2525010004001602,0.19416384904080408
1.2565026010404161,0.20328952442261028
1.2605042016806722,0.1917392537881196
1.2645058023209284,0.1542133237498905
1.2685074029611845,0.2047375830933898
1.2725090036014406,0.2872506528493541
1.2765106042416967,0.24107850453926288
1.2805122048819528,0.1775318002690915
1.284513805522209,0.1826836125635731
1.288515406162465,0.3173767336974407
1.2925170068027212,0.18872109862339134
1.2965186074429773,0.14501990164346498
1.3005202080832334,0.25419768875157084
1.3045218087234896,0.23745172239768977
1.3085234093637454,0.21137698231567278
1.3125250100040016,0.18503246768921972
1.3165266106442577,0.11980558517409112
1.3205282112845138,0.2566324771172719
1.32452981192477,0.18996005262343982
1.328531412565026,0.07406472781592752
1.3325330132052822,0.17206704520224156
1.3365346138455383,0.22633935954407272
1.3405362144857944,0.14220238442361396
1.3445378151260505,0.10393989552658667
1.3485394157663066,0.10408058785291899
1.3525410164065628,0.18211692837513846
1.3565426170468189,0.17206418544009883
1.3605442176870748,0.12581332083463348
1.364545818327331,0.16877658279591992
1.368547418967587,0.15757604105797
1.3725490196078431,0.21374669478009078
1.3765506202480993,0.07634294031715945
1.3805522208883554,0.1488376485868648
1.3845538215286115,0.1260113815979711
1.3885554221688676,0.1528353708495361
1.3925570228091237,0.12415462623517876
1.3965586234493799,0.1361983108092334
1.400560224089636,0.12406880973991151
1.404561824729892,0.1981506298188584
1.408563425370148,0.1802441547290739
1.4125650260104041,0.10154758669942854
1.4165666266506602,0.13196007217068723
1.4205682272909164,0.12028526164209452
1.4245698279311725,0.08121762079103774
1.4285714285714286,0.035580682910721834
1.4325730292116847,0.10962412396300819
1.4365746298519408,0.08447442550013065
1.440576230492197,0.1034191841782253
1.444577831132453,0.05368596287708276
1.4485794317727092,0.07802595160001895
1.4525810324129653,0.21375030816512242
1.4565826330532214,0.1524084093628621
1.4605842336934773,0.010252228575189488
1.4645858343337335,0.103711927342854
1.4685874349739896,0.11365393783610851
1.4725890356142457,0.08670166399572549
1.4765906362545018,0.18886813421342924
1.480592236894758,0.13691454363710204
1.484593837535014,0.20751826166514153
1.4885954381752702,0.13482317909533803
1.4925970388155263,0.08807210793657101
1.4965986394557824,0.09516172903418732
1.5006002400960385,0.19635230053997813
1.5046018407362947,0.13515591547390657
1.5086034413765508,0.16241427742512166
1.5126050420168067,0.04486664317874034
1.5166066426570628,-0.004110221132570712
1.520608243297319,0.19784333668934867
1.524609843937575,0.12387341862573309
1.5286114445778312,0.07798034486863253
1.5326130452180873,-0.037089045543210665
1.5366146458583434,0.05203444062873297
1.5406162464985995,0.09275356713821774
1.5446178471388556,-0.022670308388168026
1.5486194477791118,0.05127038919719184
1.5526210484193679,0.042569647762701134
1.556622649059624,0.012614892939513053
1.5606242496998801,0.039588292125954064
1.564625850340136,-0.03939009639766258
1.5686274509803921,0.21706966185853824
1.5726290516206483,0.08774712833790176
1.5766306522609044,-0.027862914275129325
1.5806322529011605,-0.06059302315851064
1.5846338535414166,0.08228087818145549
1.5886354541816727,0.06324948873232097
1.5926370548219289,-0.013638032937295807
1.596638655462185,0.10962789586457347
1.600640256102441,0.028325853634716947
1.6046418567426972,0.10698197696240791
1.6086434573829533,0.053614590365555714
1.6126450580232095,-0.021354440513048755
1.6166466586634654,-0.10399104322695793
1.6206482593037215,0.1661697517488381
1.6246498599439776,0.10459309179929764
1.6286514605842337,-0.05115334175256648
1.6326530612244898,-0.014026337472389357
1.636654661864746,0.06280899527075245
1.640656262505002,0.1984448545747489
1.6446578631452582,0.10934308852167748
1.6486594637855143,0.3193290519754386
1.6526610644257704,0.6352737826153337
1.6566626650660266,0.9207305030549705
1.6606642657062827,1.0924642431565323
1.6646658663465388,1.1345663268108825
1.6686674669867947,1.0909379362334062
1.6726690676270508,0.860460029532047
1.676670668267307,0.48960222160372546
1.680672268907563,0.26024198564249434
1.6846738695478192,0.08177404807360611
1.6886754701880753,-0.015415258083826273
1.6926770708283314,-0.15118699147069123
1.6966786714685875,-0.29490730887827776
1.7006802721088436,-0.2792174476894283
1.7046818727490998,-0.22947159620318516
1.708683473389356,-0.27851586365498876
1.712685074029612,-0.33550934847867914
1.716686674669868,-0.2892641770691029
1.720688275310124,-0.3402580861108837
1.7246898759503801,-0.24977994937122092
1.7286914765906363,-0.3752600271226569
1.7326930772308924,-0.16188176236491403
1.7366946778711485,-0.16176038966766826
1.7406962785114046,-0.11123124048639148
1.7446978791516607,-0.23449520542341515
1.7486994797919169,-0.15597415561263245
1.752701080432173,-0.12101510895651348
1.756702681072429,0.008336389560213202
1.7607042817126852,-0.037400819419373836
1.7647058823529413,-0.05187225247067008
1.7687074829931972,-0.061016302839592106
1.7727090836334534,-0.037838749456562654
1.7767106842737095,-0.05395785912119497
1.7807122849139656,-0.050562071155361515
1.7847138855542217,-0.00869023371285815
1.7887154861944778,0.008018961994679608
1.792717086834734,0.08697607296466398
1.79671868747499,-0.09192257322006636
1.8007202881152462,0.06842629804424555
1.8047218887555023,0.03953251959418329
1.8087234893957584,0.03866789683216993
1.8127250900360146,-0.11440061236708231
1.8167266906762707,0.028414920600119256
1.8207282913165266,0.19606078051153975
1.8247298919567827,0.12637287924212737
1.8287314925970388,-0.010043997589651667
1.832733093237295,0.1949095931780469
1.836734693877551,0.20742954165323324
1.8407362945178072,0.15051002806135025
1.8447378951580633,0.19733653368817325
1.8487394957983194,0.1713240094618489
1.8527410964385755,0.26450511934976767
1.8567426970788317,0.2727013125421186
1.8607442977190878,0.12024305126088831
1.864745898359344,0.19176260251808291
1.8687474989996,0.16727039058914706
1.872749099639856,0.24174659854970407
1.876750700280112,0.18417240903711551
1.8807523009203682,0.1302701996691263
1.8847539015606243,0.1561410815331887
1.8887555022008804,0.19335780820397422
1.8927571028411365,0.1507836170786889
1.8967587034813926,0.10293387307644164
1.9007603041216488,0.07900822322017985
1.9047619047619049,0.07599321769485598
1.908763505402161,-0.015856158012097613
1.9127651060424171,-0.051546751230730874
1.9167667066826732,-0.021672989632885137
1.9207683073229291,-0.019589538874316005
1.9247699079631853,-0.0728870552505485
1.9287715086034414,-0.1021606449806344
1.9327731092436975,-0.026047194370158518
1.9367747098839536,-0.07436612249439614
1.9407763105242097,-0.028240078408934548
1.9447779111644659,-0.20237698408531604
1.948779511804722,-0.12317057841267243
1.952781112444978,-0.08472068843315284
1.9567827130852342,-0.09478196899680626
1.9607843137254903,-0.17070980666029645
1.9647859143657465,-0.2708277510977947
1.9687875150060026,-0.12996368574251874
1.9727891156462585,-0.17189952318400606
1.9767907162865146,-0.22045041510569263
1.9807923169267707,-0.32174936625489714
1.9847939175670268,-0.09497011437342828
1.988795518207283,-0.11442087435698634
1.992797118847539,-0.20657340875487465
1.9967987194877952,-0.17555574672394694
2.000800320128051,-0.09971933382707261
2.0048019207683074,-0.14184923088178739
2.0088035214085633,-0.051438580421918005
2.0128051220488197,-0.23796804971128216
2.0168067226890756,-0.28072922695117536
2.020808323329332,-0.14676552524490383
2.024809923969588,-0.15801947436440794
2.028811524609844,-0.3185740370552265
2.0328131252501,-0.16915038726413062
2.0368147258903564,-0.10519669623271516
2.0408163265306123,-0.17384009965325944
2.0448179271708686,-0.21453203517930225
2.0488195278111245,-0.31048643856406266
2.0528211284513804,-0.1760009681476551
2.0568227290916368,-0.18606563210745963
2.0608243297318927,-0.2778346525224806
2.064825930372149,-0.22522713352708024
2.068827531012405,-0.22671524737254178
2.0728291316526612,-0.25932633453912396
2.076830732292917,-0.22028625979958796
2.0808323329331735,-0.2545389754064335
2.0848339335734294,-0.2441625074303831
2.0888355342136857,-0.20189571564711273
2.0928371348539416,-0.17957414840078106
2.096838735494198,-0.3054208711240547
2.100840336134454,-0.27045000130861463
2.1048419367747098,-0.12928982780425455
2.108843537414966,-0.17754875596743508
2.112845138055222,-0.31912255287121205
2.1168467386954783,-0.1775771538014964
2.1208483393357342,-0.14602160852969687
2.1248499399759906,-0.17759577920625216
2.1288515406162465,-0.282904998592471
2.132853141256503,-0.2022767749250708
2.1368547418967587,-0.3056496560412417
2.140856342537015,-0.13911270131397444
2.144857943177271,-0.2603195735651973
2.1488595438175273,-0.37969937345550425
2.152861144457783,-0.25477163050534957
2.156862745098039,-0.1885725242009269
2.1608643457382954,-0.19768524004727764
2.1648659463785513,-0.270145692819265
2.1688675470188077,-0.17843357049626551
2.1728691476590636,-0.18863792772288043
2.17687074829932,-0.2677021263780004
2.180872348939576,-0.21788958604973385
2.184873949579832,-0.29074614513146435
2.188875550220088,-0.19367457957197493
2.1928771508603444,-0.20557738214429172
2.1968787515006003,-0.20884694681716673
2.2008803521408566,-0.24144510373865052
2.2048819527811125,-0.32961437317754816
2.2088835534213684,-0.32792393074444764
2.212885154061625,-0.27773279785879235
2.2168867547018807,-0.31573392885535045
2.220888355342137,-0.17718246516259695
2.224889955982393,-0.2860107314632841
2.2288915566226493,-0.32736488751454806
2.232893157262905,-0.32683526485593484
2.2368947579031615,-0.2597712328296823
2.2408963585434174,-0.2769367974129153
2.2448979591836737,-0.34535613142866123
2.2488995598239296,-0.33092832964870517
2.252901160464186,-0.2028198602015946
2.256902761104442,-0.24279790732457787
2.2609043617446978,-0.2199137646424662
2.264905962384954,-0.22422175114919787
2.26890756302521,-0.1315427292760184
2.2729091636654664,-0.1722723194402108
2.2769107643057223,-0.37198507621660765
2.2809123649459786,-0.407047464127154
2.2849139655862345,-0.33396469559808756
2.288915566226491,-0.1426355890299575
2.2929171668667467,-0.2690173066439257
2.296918767507003,-0.3861331737380277
2.300920368147259,-0.3131160359615994
2.3049219687875153,-0.2583730302419994
2.308923569427771,-0.2920637604690626
2.312925170068027,-0.3645412328753728
2.3169267707082835,-0.21153407447091901
2.3209283713485394,-0.2636682466424789
2.3249299719887957,-0.28128563533284956
2.3289315726290516,-0.32877792713416215
2.332933173269308,-0.245232463223919
2.336934773909564,-0.24286060685424052
2.34093637454982,-0.308654651808995
2.344937975190076,-0.26007760612877345
2.3489395758303324,-0.29122428432639486
2.3529411764705883,-0.29717287043835805
2.356942777110844,-0.20380309015720702
2.3609443777511006,-0.3198346338924
2.3649459783913565,-0.37500762929211917
2.368947579031613,-0.38674001500143035
2.3729491796718687,-0.23113316465538047
2.376950780312125,-0.28490562561095994
2.380952380952381,-0.35916619125858085
2.3849539815926373,-0.2653233738582731
2.388955582232893,-0.2191315643248387
2.3929571828731495,-0.3829712992488729
2.3969587835134054,-0.4011089519122303
2.4009603841536618,-0.30418660572203016
2.4049619847939177,-0.21782632981990133
2.4089635854341735,-0.2898359759565281
2.41296518607443,-0.27191302549015506
2.416966786714686,-0.29479138154646695
2.420968387354942,-0.25478975759482747
2.424969987995198,-0.27438918529854617
2.4289715886354544,-0.40149074994070083
2.4329731892757103,-0.2996811149014763
2.4369747899159666,-0.24412112634998656
2.4409763905562225,-0.2692123002252164
2.444977991196479,-0.34251361419960896
2.4489795918367347,-0.32768695825479965
2.452981192476991,-0.3333434318437248
2.456982793117247,-0.21573140539059193
2.460984393757503,-0.3461318034188329
2.4649859943977592,-0.2847820083460146
2.468987595038015,-0.25128109293721224
2.4729891956782715,-0.17022412601347647
2.4769907963185274,-0.14294820152640503
2.4809923969587837,-0.04944158964167175
2.4849939975990396,0.338713335782156
2.488995598239296,0.6212242248159995
2.492997198879552,0.7900750536117147
2.496998799519808,0.7731233566881641
2.501000400160064,0.8242606078316503
2.5050020008003204,0.5549282807143985
2.5090036014405763,0.23759576368414353
2.5130052020808322,-0.04077535478822928
2.5170068027210886,-0.32167255210751355
2.5210084033613445,-0.28091817038382
2.525010004001601,-0.40421341987250364
2.5290116046418567,-0.571828839504386
2.533013205282113,-0.53154881823438
2.537014805922369,-0.5463366877934838
2.5410164065626253,-0.5169276406029699
2.545018007202881,-0.6481261185290825
2.5490196078431375,-0.597740953913589
2.5530212084833934,-0.4455418726408106
2.5570228091236498,-0.5125229954596642
2.5610244097639057,-0.6509373485223455
2.5650260104041616,-0.48506963236237005
2.569027611044418,-0.4889166984953054
2.573029211684674,-0.31438226380196344
2.57703081232493,-0.4113379007955361
2.581032412965186,-0.39288987076429505
2.5850340136054424,-0.3482847874934646
2.5890356142456983,-0.3390993722123208
2.5930372148859546,-0.2845585582188164
2.5970388155262105,-0.40270036627909744
2.601040416166467,-0.22830266284143977
2.6050420168067228,-0.27985536360937097
2.609043617446979,-0.2801047106282163
2.613045218087235,-0.342187070936273
2.617046818727491,-0.2790843386440532
2.6210484193677472,-0.20976072020649308
2.625050020008003,-0.24424995400966573
2.6290516206482595,-0.3380119905935866
2.6330532212885154,-0.3926884485054708
2.6370548219287717,-0.1622467061471148
2.6410564225690276,-0.12995659202666732
2.645058023209284,-0.24736618834432267
2.64905962384954,-0.25915331458396423
2.653061224489796,-0.07397678481139422
2.657062825130052,-0.032352975939484635
2.6610644257703084,-0.054615773007369924
2.6650660264105643,-0.1650671450014723
2.6690676270508202,0.009241348214876613
2.6730692276910766,0.052733713045968786
2.6770708283313325,-0.005743983238947863
2.681072428971589,0.041671007533690366
2.6850740296118447,-0.009301114608524324
2.689075630252101,0.0036187419117422945
2.693077230892357,0.053056511137063854
2.6970788315326133,0.027342872056104195
2.701080432172869,0.07321614573133418
2.7050820328131255,0.10105503063446877
2.7090836334533814,-0.047726848744485996
2.7130852340936378,-0.008391603274950483
2.7170868347338937,-0.03890418891128261
2.7210884353741496,0.004986787571411036
2.725090036014406,-0.05666357610826546
2.729091636654662,-0.11088861377911308
2.733093237294918,-0.12402061221475046
2.737094837935174,-0.13267235951271675
2.7410964385754304,-0.08331227018835226
2.7450980392156863,-0.16099071828533806
2.7490996398559426,-0.19813891144060247
2.7531012404961985,-0.1902980780085458
2.757102841136455,-0.05023217419774806
2.7611044417767108,-0.3112917803273823
2.765106042416967,-0.2150138412831272
2.769107643057223,-0.2066837018964701
2.773109243697479,-0.1253597051492252
2.7771108443377353,-0.2343372877609925
2.781112444977991,-0.26330399454801345
2.7851140456182475,-0.19774100906790493
2.7891156462585034,-0.1851559948502427
2.7931172468987597,-0.3673334142341465
2.7971188475390156,-0.2993456704569222
2.801120448179272,-0.1839358011018057
2.805122048819528,-0.27925474102742703
2.809123649459784,-0.24678636951320462
2.81312525010004,-0.31859311884343877
2.817126850740296,-0.255077635741901
2.8211284513805523,-0.2036156848439483
2.8251300520208082,-0.2615677110337808
2.8291316526610646,-0.29513872538828817
2.8331332533013205,-0.29079097938470233
2.837134853941577,-0.19527172779334206
2.8411364545818327,-0.2950116701009018
2.845138055222089,-0.24588958052745039
2.849139655862345,-0.3015056607897427
2.8531412565026013,-0.20450081753800725
2.857142857142857,-0.21792223950830333
2.8611444577831135,-0.30288230787696235
2.8651460584233694,-0.244921796692881
2.8691476590636253,-0.0920854626353262
2.8731492597038817,-0.13178054994961513
2.8771508603441376,-0.2416798571879605
2.881152460984394,-0.2862557706177146
2.88515406162465,-0.27659969942782425
2.889155662264906,-0.14509515238892445
2.893157262905162,-0.21681647430051162
2.8971588635454184,-0.2473025298102029
2.9011604641856743,-0.22999037677798903
2.9051620648259306,-0.1640147916139498
2.9091636654661865,-0.2942699428648952
2.913165266106443,-0.23926391645667763
2.917166866746699,-0.16372460040682776
2.9211684673869547,-0.07757731939493132
2.925170068027211,-0.2615358868425034
2.929171668667467,-0.34000503500832135
2.9331732693077233,-0.24784333291654895
2.937174869947979,-0.17309317389159656
2.9411764705882355,-0.1577473438714767
2.9451780712284914,-0.256656517269857
2.9491796718687477,-0.28570379953553776
2.9531812725090036,-0.15211993169077098
2.95718287314926,-0.21027217132087775
2.961184473789516,-0.16889897818284894
2.9651860744297722,-0.24572454311390007
2.969187675070028,-0.17663105449403277
2.973189275710284,-0.15543179437808732
2.9771908763505404,-0.17953001736498353
2.9811924769907963,-0.22763114945561402
2.9851940776310526,-0.17038593950985276
2.9891956782713085,-0.11677101720264373
2.993197278911565,-0.16584261660684066
2.9971988795518207,-0.24928518951124046
3.001200480192077,-0.2362802311455156
3.005202080832333,-0.12395479643602825
3.0092036814725893,-0.26381168907782043
3.013205282112845,-0.24968832227207313
3.0172068827531016,-0.20740922256250854
3.0212084833933575,-0.009878952816005787
3.0252100840336134,-0.15820799158557367
3.0292116846738697,-0.16937734565859117
3.0332132853141256,-0.24590480762621272
3.037214885954382,-0.10921472169832883
3.041216486594638,-0.1756508409345137
3.045218087234894,-0.15977891129121236
3.04921968787515,-0.1823709912654621
3.0532212885154064,-0.0515794872982087
3.0572228891556623,-0.06711139965291082
3.0612244897959187,-0.1712036053837567
3.0652260904361746,-0.20764640529758066
3.069227691076431,-0.20410114207558572
3.073229291716687,-0.05926803408741802
3.0772308923569427,-0.18280620503958409
3.081232492997199,-0.16324644638422664
3.085234093637455,-0.12788735415475794
3.0892356942777113,0.013811337013022298
3.093237294917967,-0.139079675117687
3.0972388955582235,-0.14552187746214912
3.1012404961984794,-0.1316914347553216
3.1052420968387358,-0.06894438634160831
3.1092436974789917,-0.09377738586565768
3.113245298119248,-0.21303323734424467
3.117246898759504,-0.11128104102839548
3.1212484993997602,-0.06838983982358912
3.125250100040016,-0.01696098259477581
3.129251700680272,-0.09223533718591262
3.1332533013205284,-0.09886152003651547
3.1372549019607843,0.03356456265902859
3.1412565026010406,0.021760689519578172
3.1452581032412965,-0.19327020206346962
3.149259703881553,-0.16716624118802922
3.1532613045218087,-0.04063083931677345
3.157262905162065,-0.20047876400344075
3.161264505802321,-0.15531867464288243
3.1652661064425773,-0.19526124264528555
3.1692677070828332,-0.09383411064587602
3.1732693077230896,-0.021882581891216613
3.1772709083633455,-0.1060408509226015
3.1812725090036014,-0.11809866034506922
3.1852741096438577,-0.07298242422561667
3.1892757102841136,-0.09584620309964728
3.19327731092437,-0.07661835881988825
3.197278911564626,-0.13143162123000954
3.201280512204882,-0.050192377828721345
3.205282112845138,0.09849689489758232
3.2092837134853944,-0.1429812333504041
3.2132853141256503,-0.132777668366331
3.2172869147659067,-0.13061974908564897
3.2212885154061626,-0.018959482725298876
3.225290116046419,-0.06705884431949324
3.229291716686675,-0.1624730558266413
3.2332933173269307,-0.13279770154711343
3.237294917967187,-0.042214480104202076
3.241296518607443,-0.07407920157889297
3.2452981192476993,-0.05761006580530822
3.249299719887955,-0.1516015528379264
3.2533013205282115,-0.16079681118098876
3.2573029211684674,0.06261931495340076
3.2613045218087238,-0.06584786571612403
3.2653061224489797,-0.12233346152010513
3.269307723089236,-0.005400052652509993
3.273309323729492,-0.031740495580117094
3.2773109243697482,-3.9189356696393146e-05
3.281312525010004,-0.13493847203640352
3.28531412565026,0.058008143434039955
3.2893157262905164,-0.009808928373490532
3.2933173269307723,0.039087657160128346
3.2973189275710286,-0.1318116048380125
3.3013205282112845,0.045371345330792213
3.305322128851541,0.1177415812676821
3.3093237294917968,0.10604034558090102
3.313325330132053,0.29879919744644506
3.317326930772309,0.6492925043431511
3.3213285314125653,0.80628980326018
3.3253301320528212,1.1259825155475969
3.3293317326930776,1.0827774836379573
3.3333333333333335,0.9699174437045347
3.3373349339735894,0.9590523658452839
3.3413365346138457,0.6121629609780199
3.3453381352541016,0.20272528738226292
3.349339735894358,0.06822134796162646
3.353341336534614,0.10265729175149166
3.35734293717487,-0.05862347555832295
3.361344537815126,-0.1205454229366206
3.3653461384553824,-0.20146741070016544
3.3693477390956383,-0.1889420911375918
3.3733493397358947,-0.1963362691640946
3.3773509403761506,-0.31684399459977886
3.3813525410164065,-0.22961514383909723
3.385354141656663,-0.19037942543285927
3.3893557422969187,-0.22199491325880605
3.393357342937175,-0.1876159691288257
3.397358943577431,-0.12210048687605435
3.4013605442176873,-0.1543824185169817
3.405362144857943,-0.08382241943717028
3.4093637454981995,0.04555098658650472
3.4133653461384554,-0.035271365733772396
3.417366946778712,0.06244169647018956
3.4213685474189677,0.10110204461015428
3.425370148059224,-0.004837507190402327
3.42937174869948,-0.013568131342584853
3.433373349339736,0.09337953352172357
3.437374949979992,0.17421975876514256
3.441376550620248,0.13159416066676607
3.4453781512605044,0.15428826731969605
3.4493797519007603,0.12214618219733057
3.4533813525410166,0.1324967791279669
3.4573829531812725,0.26539767794347646
3.461384553821529,0.16289444523764687
3.4653861544617848,0.15699980114927936
3.469387755102041,0.25917931345191925
3.473389355742297,0.2138913087031024
3.4773909563825534,0.1532983938898948
3.4813925570228093,0.21478031243212925
3.485394157663065,0.2993796926470723
3.4893957583033215,0.3986717242501938
3.4933973589435774,0.2300930718870954
3.4973989595838337,0.21603287897540635
3.5014005602240896,0.34402230180496446
3.505402160864346,0.39094966026570044
3.509403761504602,0.38505924699040334
3.513405362144858,0.3519706112838036
3.517406962785114,0.41722150731892266
3.5214085634253705,0.38352704445445984
3.5254101640656264,0.4643546913108419
3.5294117647058827,0.33650545130353476
3.5334133653461386,0.31421442612016887
3.5374149659863945,0.48983125634132285
3.541416566626651,0.43107100943617666
3.5454181672669067,0.25706803558596636
3.549419767907163,0.28085219194838934
3.553421368547419,0.3890123643853184
3.5574229691876753,0.22758720265733173
3.561424569827931,0.3313168521256254
3.5654261704681876,0.24578827107317716
3.5694277711084434,0.32433097366034774
3.5734293717487,0.32286320180152905
3.5774309723889557,0.36701929883109413
3.581432573029212,0.2795065514427333
3.585434173669468,0.3869757248299145
3.589435774309724,0.3168292819277969
3.59343737494998,0.18708473279381463
3.597438975590236,0.16786015201611934
3.6014405762304924,0.23178310442208797
3.6054421768707483,0.21934464907959647
3.6094437775110046,0.15399459159512563
3.6134453781512605,0.1961901613818674
3.617446978791517,0.16853820600334096
3.621448579431773,0.26096051475877036
3.625450180072029,0.17841547429673588
3.629451780712285,0.16410643096975036
3.6334533813525414,0.21477558562538288
3.6374549819927973,0.2185498849637338
3.641456582633053,0.21681884724883344
3.6454581832733095,0.1420991387796818
3.6494597839135654,0.1766176676083129
3.6534613845538217,0.2288940520563355
3.6574629851940776,0.22157502134628887
3.661464585834334,0.08406322675611246
3.66546618647459,0.13241455658788498
3.6694677871148462,0.14612239472430433
3.673469387755102,0.17792612904063232
3.6774709883953585,0.14996873338199515
3.6814725890356144,0.210762909442874
3.6854741896758707,0.1769110950699145
3.6894757903161266,0.17343713633862434
3.6934773909563825,0.10286629790058976
3.697478991596639,0.22162628392454592
3.7014805922368947,0.16589127206816023
3.705482192877151,0.2489471873194715
3.709483793517407,0.05551711227679915
3.7134853941576633,0.22155320582022447
3.717486994797919,0.14621722794114816
3.7214885954381756,0.2602598231350069
3.7254901960784315,0.18348974622428593
3.729491796718688,0.15693508347811042
3.7334933973589437,0.23816823715954732
3.7374949979992,0.2714724294408847
3.741496598639456,0.3159289971179887
3.745498199279712,0.23619285915334093
3.749499799919968,0.202868885354708
3.753501400560224,0.26631593013227267
3.7575030012004804,0.15280351854932148
3.7615046018407363,0.23742798098459902
3.7655062024809927,0.2176969247932462
3.7695078031212486,0.26232593690245054
3.773509403761505,0.2689667690725677
3.777511004401761,0.16179741997313288
3.781512605042017,0.2010084076883004
3.785514205682273,0.21435052871568172
3.7895158063225294,0.2530456854284002
3.7935174069627853,0.2875840320976411
3.797519007603041,0.21058372829169664
3.8015206082432975,0.15425312299830507
3.8055222088835534,0.3686818548479362
3.8095238095238098,0.28316971868597585
3.8135254101640657,0.18323163808284781
3.817527010804322,0.2554634271930336
3.821528611444578,0.32499181123371274
3.8255302120848342,0.28446665896376633
3.82953181272509,0.21605279430273933
3.8335334133653465,0.190426730580725
3.8375350140056024,0.23191322659708055
3.8415366146458583,0.26743963637946755
3.8455382152861146,0.20161178164062424
3.8495398159263705,0.1547657918568382
3.853541416566627,0.35707239318984946
3.8575430172068828,0.2596648267064059
3.861544617847139,0.17416684343921104
3.865546218487395,0.20548616625432709
3.8695478191276513,0.2971546383396817
3.8735494197679072,0.20644210001406538
3.8775510204081636,0.2322130145494246
3.8815526210484195,0.2936302863445078
3.885554221688676,0.30396411911918897
3.8895558223289317,0.2988300660273373
3.8935574229691876,0.2851737216402119
3.897559023609444,0.09710900395072977
3.9015606242497,0.2755566826317089
3.905562224889956,0.319639616895129
3.909563825530212,0.3192664115467615
3.9135654261704684,0.2305187195826618
3.9175670268107243,0.24661502342270814
3.9215686274509807,0.3431438904432295
3.9255702280912366,0.2802508474204253
3.929571828731493,0.2405312858313361
3.933573429371749,0.3349105841143129
3.937575030012005,0.3503541942301863
3.941576630652261,0.24952096537448112
3.945578231292517,0.18646751734273248
3.9495798319327733,0.29133698198000063
3.953581432573029,0.3504951951322193
3.9575830332132855,0.3527712293261974
3.9615846338535414,0.21494807390216653
3.9655862344937978,0.21916474370237904
3.9695878351340537,0.28687428879790644
3.97358943577431,0.2876681148533834
3.977591036414566,0.27214360105034474
3.9815926370548222,0.21103200185291662
3.985594237695078,0.28759665449367633
3.9895958383353345,0.4080617987290182
3.9935974389755904,0.3238282531214587
3.9975990396158463,0.24140082272043184
4.001600640256102,0.2115035236164054
4.0056022408963585,0.3860480025868096
4.009603841536615,0.25964289260986606
4.013605442176871,0.3130491842368088
4.017607042817127,0.3043331585920965
4.021608643457383,0.293525541871382
4.025610244097639,0.2485733854673988
4.029611844737896,0.24252220722332213
4.033613445378151,0.24653528633306832
4.0376150460184075,0.428124886688109
4.041616646658664,0.3962777763542709
4.04561824729892,0.26640934865148636
4.049619847939176,0.17241176640085215
4.053621448579432,0.22834186855311142
4.057623049219688,0.4397767137767184
4.061624649859944,0.13584325138150244
4.0656262505002,0.272139548343156
4.069627851140456,0.31579172524746874
4.073629451780713,0.3998457345660945
4.077631052420968,0.18349404412801457
4.081632653061225,0.28180813129997484
4.085634253701481,0.24065595896752182
4.089635854341737,0.38325913225563846
4.093637454981993,0.3342606922719108
4.097639055622249,0.2662475763243608
4.101640656262505,0.35757238531556623
4.105642256902761,0.3290569395363325
4.109643857543017,0.3186214412203247
4.1136454581832735,0.1834122773575108
4.11764705882353,0.2772545730578295
4.121648659463785,0.31606827203080323
4.125650260104042,0.2531940272125151
4.129651860744298,0.31950158000200063
4.133653461384554,0.3140281707301657
4.13765506202481,0.3916416269548155
4.141656662665066,0.5398425729437012
4.1456582633053225,0.6075811881200147
4.149659863945578,0.8465259720592714
4.153661464585834,1.1983137468278113
4.157663065226091,1.4418833705350527
4.161664665866347,1.3458885399529228
4.165666266506602,1.3988013339620458
4.169667867146859,1.126497529818825
4.173669467787115,0.8894061923168494
4.1776710684273715,0.5350815163963537
4.181672669067627,0.27071814604864547
4.185674269707883,0.22160155897040498
4.18967587034814,0.25984926489147797
4.193677470988396,0.18910845538417936
4.197679071628651,0.0813359296543542
4.201680672268908,0.0167327152222831
4.205682272909164,-0.019346733349266128
4.2096838735494195,-0.06644343897413206
4.213685474189676,-0.008637395667818952
4.217687074829932,-0.011790631528503365
4.221688675470189,0.022368654733562754
4.225690276110444,0.07843399142263803
4.2296918767507,0.04806927848333856
4.233693477390957,0.10003435768959479
4.237695078031213,0.22685184651026455
4.2416966786714685,0.2340835058542667
4.245698279311725,0.18104773442842378
4.249699879951981,0.2311507343803383
4.253701480592237,0.3500886659985896
4.257703081232493,0.2300809662830604
4.261704681872749,0.2578412829226465
4.265706282513006,0.2246810933441698
4.269707883153261,0.3669383023874091
4.2737094837935174,0.345855272821151
4.277711084433774,0.22550878958670462
4.28171268507403,0.18832242489474643
4.285714285714286,0.3047783898913735
4.289715886354542,0.38618315368954415
4.293717486994798,0.31790781980187094
4.297719087635055,0.3713109614691077
4.30172068827531,0.3185379548342924
4.305722288915566,0.4236122919085471
4.309723889555823,0.4511920327745961
4.313725490196078,0.4233741636771034
4.3177270908363345,0.39761963444563325
4.321728691476591,0.5328194705397586
4.325730292116847,0.550766296098792
4.329731892757103,0.40192648413394655
4.333733493397359,0.5410505464139456
4.337735094037615,0.5825404440327729
4.341736694677872,0.7077373489483944
4.345738295318127,0.48307255039010816
4.3497398959583835,0.5774628404510531
4.35374149659864,0.6951067083512598
4.357743097238895,0.6257000570250313
4.361744697879152,0.48760148186730645
4.365746298519408,0.4982036775189946
4.369747899159664,0.5154333055857568
4.37374949979992,0.7240564974553506
4.377751100440176,0.5729278673990366
4.3817527010804325,0.5485279279150674
4.385754301720689,0.5518662466446026
4.389755902360944,0.6083934917080545
4.393757503001201,0.5168874471056848
4.397759103641457,0.37177776498945647
4.401760704281713,0.5408665398549906
4.405762304921969,0.5488150434679311
4.409763905562225,0.515018158212368
4.413765506202481,0.38278444243482856
4.417767106842737,0.42375113583725105
4.421768707482993,0.41765675212435877
4.42577030812325,0.2831575805773479
4.429771908763506,0.27394346548710496
4.433773509403761,0.30397802156296977
4.437775110044018,0.35256606333304813
4.441776710684274,0.3122879559053588
4.44577831132453,0.255185100033787
4.449779911964786,0.31156646110343744
4.453781512605042,0.32824101713025694
4.4577831132452985,0.2144763228107845
4.461784713885554,0.31053150472174534
4.46578631452581,0.2520448816748606
4.469787915166067,0.2821589834814945
4.473789515806323,0.3025025123573857
4.4777911164465785,0.22715402472305626
4.481792717086835,0.2538561535414383
4.485794317727091,0.26993307279550904
4.4897959183673475,0.30520265314039335
4.493797519007603,0.19745158787874023
4.497799119647859,0.2478665749131348
4.501800720288116,0.2598720371085977
4.505802320928372,0.227975713544423
4.509803921568627,0.2894449606043572
4.513805522208884,0.2376581455523641
4.51780712284914,0.209341752691175
4.5218087234893956,0.27469189371997543
4.525810324129652,0.2858062191039304
4.529811924769908,0.10026384199491373
4.533813525410165,0.19003875643165943
4.53781512605042,0.4178955001317572
4.541816726690676,0.27478310853001675
4.545818327330933,0.14453720734959313
4.549819927971189,0.24343053208951376
4.5538215286114445,0.27716083148914167
4.557823129251701,0.3632346438074554
4.561824729891957,0.15141095633360982
4.565826330532213,0.22760160719913838
4.569827931172469,0.18003743316664114
4.573829531812725,0.32895564922552667
4.577831132452982,0.20546366852611886
4.581832733093237,0.2325700455100582
4.5858343337334935,0.1396383368308584
4.58983593437375,0.28714698112991904
4.593837535014006,0.2148670260416371
4.597839135654262,0.06832553279744885
4.601840736294518,0.2353595619159187
4.605842336934774,0.27196436959154063
4.609843937575031,0.20403828501377463
4.613845538215286,0.11113754852183037
4.617847138855542,0.2560580771260331
4.621848739495799,0.29915542361239966
4.625850340136054,0.19085913811129132
4.629851940776311,0.10261347272835926
4.633853541416567,0.2536321590493352
4.637855142056823,0.30312230148923325
4.641856742697079,0.2613263880429667
4.645858343337335,0.12239920804915025
4.649859943977591,0.1614132380341967
4.653861544617848,0.2231957596575059
4.657863145258103,0.24105240772626715
4.6618647458983595,0.20991938384299308
4.665866346538616,0.13913382588577572
4.669867947178871,0.24478268497674718
4.673869547819128,0.22455521674919207
4.677871148459384,0.13430296348100196
4.68187274909964,0.18000767746758736
4.685874349739896,0.14278944523418863
4.689875950380152,0.23860162739858173
4.6938775510204085,0.21372569850218134
4.697879151660665,0.02880100564470861
4.70188075230092,0.14435579602142734
4.705882352941177,0.23039149595661285
4.709883953581433,0.19354818795100992
4.713885554221688,0.050117668768949866
4.717887154861945,0.09226437271705701
4.721888755502201,0.22732094333643385
4.7258903561424574,0.2171735648211434
4.729891956782713,0.21867123084429055
4.733893557422969,0.13606965662822945
4.737895158063226,0.1963374744485338
4.741896758703482,0.12960078290203805
4.745898359343737,0.10105111785239822
4.749899959983994,0.06065089354085312
4.75390156062425,0.19420726631795046
4.757903161264506,0.11514170131145963
4.761904761904762,0.16398263532466584
4.765906362545018,0.09326459060410232
4.7699079631852745,0.06797217136006294
4.77390956382553,0.21081803298372617
4.777911164465786,0.012765401276259993
4.781912765106043,0.14482789689916775
4.785914365746299,0.06591400279796814
4.7899159663865545,0.1999296215896173
4.793917567026811,0.07221047557558913
4.797919167667067,0.024467523621919667
4.8019207683073235,0.11035912279594601
4.805922368947579,0.14249671519064644
4.809923969587835,0.08603719544879536
4.813925570228092,0.006103711589954486
4.817927170868347,0.14235536879046504
4.821928771508603,0.18477054245693914
4.82593037214886,0.10980974970577884
4.829931972789116,-0.04760949234103279
4.833933573429372,0.10364941100500381
4.837935174069628,0.12696973235427383
4.841936774709884,0.20082009151350314
4.845938375350141,0.06643766301695295
4.849939975990396,0.04294496646432867
4.853941576630652,0.08404836921134753
4.857943177270909,0.11454395259158251
4.861944777911165,0.00022212847430070834
4.8659463785514205,-0.006846067200522325
4.869947979191677,0.19019342202921152
4.873949579831933,0.024222224019459913
4.877951180472189,0.10858531164554829
4.881952781112445,0.04227474569125396
4.885954381752701,0.0950264670742304
4.889955982392958,0.16339552584381434
4.893957583033213,0.06271255986615147
4.8979591836734695,-0.03738007949432121
4.901960784313726,-0.001276013170080429
4.905962384953982,0.06959519888563362
4.909963985594238,0.042680642626839675
4.913965586234494,-0.07468999595195194
4.91796718687475,0.07350819217248676
4.921968787515006,0.04496565380824931
4.925970388155262,0.021500531248387085
4.9299719887955185,0.10056475576565191
4.933973589435775,0.0026054109516327126
4.93797519007603,-0.002343482323417044
4.941976790716287,0.11242392202025547
4.945978391356543,-0.037828338928629524
4.949979991996799,-0.02108734546659788
4.953981592637055,0.12138829381171369
4.957983193277311,0.11297355858127878
4.961984793917567,-0.047699984637402174
4.965986394557824,-0.005440151257844195
4.969987995198079,0.11245472885835611
4.9739895958383356,0.210598823303472
4.977991196478592,0.3685652747652425
4.981992797118847,0.5888511798183577
4.985994397759104,0.9288690995729527
4.98999599839936,1.171737717887265
4.993997599039616,1.1504176110076545
4.997999199679872,1.0230924419018999
5.002000800320128,0.9055196741472615
5.0060024009603845,0.5320389137284041
5.010004001600641,0.30370154214720696
5.014005602240896,0.04351458264698111
5.018007202881153,-0.14303542708146672
5.022008803521409,-0.08065854782363366
5.0260104041616644,-0.15283046943977838
5.030012004801921,-0.2104438945966311
5.034013605442177,-0.3419263267820794
5.0380152060824335,-0.24452555621730215
5.042016806722689,-0.30177804665724356
5.046018407362945,-0.36318855581669496
5.050020008003202,-0.2917248035929803
5.054021608643458,-0.19191651069067353
5.058023209283713,-0.22368594290445218
5.06202480992397,-0.18471297538453693
5.066026410564226,-0.24643146064211527
5.070028011204482,-0.10298961530092061
5.074029611844738,-0.12321956317430224
5.078031212484994,-0.12731183435607904
5.082032813125251,-0.060018929689271826
5.086034413765506,-0.040731269953603357
5.090036014405762,0.010663926451905968
5.094037615046019,-0.03718402737678099
5.098039215686275,-0.16621705851597166
5.1020408163265305,-0.11191183340418115
5.106042416966787,0.006427098231156281
5.110044017607043,-0.0017290044920360605
5.1140456182472995,-0.03403974805503281
5.118047218887555,-0.12716606421943694
5.122048819527811,-0.020884452493624237
5.126050420168068,-0.022348775756002984
5.130052020808323,0.033517597610828426
5.1340536214485795,0.027308236243487688
5.138055222088836,0.11392269854380532
5.142056822729092,0.13602819313876005
5.146058423369348,0.025592510940197752
5.150060024009604,0.06390663957720852
5.15406162464986,0.09927659659352182
5.158063225290117,0.10040435392172103
5.162064825930372,0.07378261985603461
5.166066426570628,0.16965634200351698
5.170068027210885,0.11858213470519918
5.17406962785114,0.19074649578171798
5.178071228491397,0.16381537516309663
5.182072829131653,0.1254117356913123
5.186074429771909,0.1370989276917713
5.190076030412165,0.2210520312737354
5.194077631052421,0.0833725541999356
5.198079231692677,0.1425390600395588
5.202080832332934,0.1068918303048163
5.206082432973189,0.15705870895099258
5.2100840336134455,0.16041168850597862
5.214085634253702,0.016566347296311228
5.218087234893958,0.06583737667977031
5.222088835534214,0.21170454662443952
5.22609043617447,0.23271849280683068
5.230092036814726,0.08192083458267085
5.234093637454982,0.0009912073084840205
5.238095238095238,0.11628702625983581
5.2420968387354945,0.04415302330215638
5.246098439375751,0.019601821233121666
5.250100040016006,-0.06705389311304441
5.254101640656263,0.0221537920569269
5.258103241296519,0.08105199527460358
5.262104841936775,-0.06454437992109105
5.266106442577031,-0.16465745860791603
5.270108043217287,-0.17851243347428628
5.274109643857543,-0.06706034084979079
5.278111244497799,-0.1459857851811028
5.282112845138055,-0.14618396621382385
5.286114445778312,-0.1021368927831833
5.290116046418568,-0.045005892950526274
5.294117647058823,-0.22762746320380178
5.29811924769908,-0.24590362414771097
5.302120848339336,-0.15193278455550918
5.306122448979592,-0.130970115929838
5.310124049619848,-0.10191656588263372
5.314125650260104,-0.20609302162893045
5.3181272509003605,-0.13256451950826537
5.322128851540617,-0.13968639370862285
5.326130452180872,-0.13119768529012085
5.330132052821129,-0.2912858824989875
5.334133653461385,-0.1452471355117586
5.3381352541016405,-0.17336430354923948
5.342136854741897,-0.12050853837525512
5.346138455382153,-0.2795469722026138
5.3501400560224095,-0.23078339942683862
5.354141656662665,-0.08364978684517033
5.358143257302921,-0.0842105956103378
5.362144857943178,-0.25066535510716625
5.366146458583434,-0.2815485090806672
5.370148059223689,-0.22196134056956235
5.374149659863946,-0.15964845924660698
5.378151260504202,-0.13196325337328838
5.382152861144458,-0.2091036083400172
5.386154461784714,-0.16005529115858155
5.39015606242497,-0.2762180460631487
5.394157663065227,-0.29112545374118987
5.398159263705482,-0.24394305274435152
5.402160864345738,-0.24770966932243907
5.406162464985995,-0.11869685959339302
5.410164065626251,-0.24412090572491835
5.4141656662665065,-0.2456953268988331
5.418167266906763,-0.304025360262065
5.422168867547019,-0.1808041522271275
5.4261704681872756,-0.1769925945576207
5.430172068827531,-0.31338323227218273
5.434173669467787,-0.25142096342969444
5.438175270108044,-0.1671899408796117
5.442176870748299,-0.23050904092260466
5.4461784713885555,-0.2915532702040088
5.450180072028812,-0.28642474574452
5.454181672669068,-0.1818777531249336
5.458183273309324,-0.09802646924393933
5.46218487394958,-0.23219073032776472
5.466186474589836,-0.2648166794578617
5.470188075230093,-0.23421768852852093
5.474189675870348,-0.29237416132950683
5.4781912765106044,-0.2172973071817954
5.482192877150861,-0.2529890832161944
5.486194477791116,-0.2321879817104011
5.490196078431373,-0.2079760816227024
5.494197679071629,-0.22593503601704862
5.498199279711885,-0.3167273620899487
5.502200880352141,-0.22242492866568628
5.506202480992397,-0.32112079205666105
5.510204081632653,-0.32812537887154586
5.51420568227291,-0.3135023882616995
5.518207282913165,-0.2978725651803662
5.5222088835534215,-0.21506741358497605
5.526210484193678,-0.26308418890542984
5.530212084833934,-0.2755396976103821
5.53421368547419,-0.31430356292687267
5.538215286114446,-0.18099026229381365
5.542216886754702,-0.2096684987877543
5.546218487394958,-0.36225005909929964
5.550220088035214,-0.25481263982028995
5.5542216886754705,-0.28190525582132225
5.558223289315727,-0.19418745336333793
5.562224889955982,-0.279414474483614
5.566226490596239,-0.27434988337505306
5.570228091236495,-0.272465994563391
5.574229691876751,-0.189122952601028
5.578231292517007,-0.2944746034056493
5.582232893157263,-0.2672235796138185
5.5862344937975195,-0.25056511511994983
5.590236094437775,-0.22991057969643974
5.594237695078031,-0.2561991315187767
5.598239295718288,-0.33044950780534643
5.602240896358544,-0.2765076909234051
5.606242496998799,-0.24689251086438174
5.610244097639056,-0.3085017390485036
5.614245698279312,-0.40352648792500806
5.618247298919568,-0.27913109617210174
5.622248899559824,-0.1784606163188222
5.62625050020008,-0.28468371260901904
5.630252100840337,-0.23877851321549937
5.634253701480592,-0.3091160933225988
5.638255302120848,-0.3006068504274366
5.642256902761105,-0.24178526556829114
5.646258503401361,-0.3343232741468346
5.6502601040416165,-0.2945422138328816
5.654261704681873,-0.3355270790851204
5.658263305322129,-0.28677716563717526
5.6622649059623855,-0.22924167727845768
5.666266506602641,-0.22796106444031156
5.670268107242897,-0.2099291832802549
5.674269707883154,-0.23320732107079595
5.67827130852341,-0.2620808066522386
5.6822729091636655,-0.36418746484546455
5.686274509803922,-0.2890834976232772
5.690276110444178,-0.34368398296613223
5.694277711084434,-0.22218494730721935
5.69827931172469,-0.35230772845568425
5.702280912364946,-0.2571390716236549
5.706282513005203,-0.23860773197114243
5.710284113645458,-0.2767302757159876
5.714285714285714,-0.2908008169064715
5.718287314925971,-0.19377922257467883
5.722288915566227,-0.2547189866749661
5.7262905162064826,-0.23066954857997485
5.730292116846739,-0.3034126086748313
5.734293717486995,-0.36102561169445746
5.738295318127251,-0.29341180646444337
5.742296918767507,-0.31688683490879055
5.746298519407763,-0.3889505923585788
5.75030012004802,-0.34590241495977553
5.754301720688275,-0.3008678595702067
5.7583033213285315,-0.3048317097838652
5.762304921968788,-0.3262244287038636
5.766306522609044,-0.35476834306028615
5.7703081232493,-0.22329715670839606
5.774309723889556,-0.23404012279154332
5.778311324529812,-0.3164519561178701
5.782312925170069,-0.4317472614338765
5.786314525810324,-0.2568132274659327
5.7903161264505805,-0.23941346229921195
5.794317727090837,-0.2842260846369505
5.798319327731092,-0.25475507124519153
5.802320928371349,-0.18185099423406464
5.806322529011605,-0.08369600334801827
5.810324129651861,0.10265935350552516
5.814325730292117,0.26547450058829436
5.818327330932373,0.5335675935591597
5.822328931572629,0.8551913325479416
5.826330532212886,0.8449676849266495
5.830332132853141,0.7180127825288914
5.834333733493398,0.4336224669492553
5.838335334133654,0.30492097633778337
5.842336934773909,-0.05214499198590502
5.846338535414166,-0.25636541641210203
5.850340136054422,-0.4663013166098484
5.854341736694678,-0.3334787657608107
5.858343337334934,-0.40766762216562497
5.86234493797519,-0.5212778186609629
5.8663465386154465,-0.6593613035490958
5.870348139255703,-0.5311210742088031
5.874349739895958,-0.5889117460930298
5.878351340536215,-0.6170635226537112
5.882352941176471,-0.677851848038362
5.886354541816727,-0.5853428658066503
5.890356142456983,-0.49086722930551535
5.894357743097239,-0.4288443405136049
5.8983593437374955,-0.5487486639105451
5.902360944377751,-0.3954364311815309
5.906362545018007,-0.302407561617314
5.910364145658264,-0.34375501607599396
5.91436574629852,-0.44102493159824463
5.918367346938775,-0.29330750720044063
5.922368947579032,-0.2955004838765898
5.926370548219288,-0.26470948991031196
5.9303721488595444,-0.45005340855632703
5.9343737494998,-0.3170891101959532
5.938375350140056,-0.2285820597750998
5.942376950780313,-0.1804084959963302
5.946378551420568,-0.28044160353025877
5.950380152060824,-0.2696524821456593
5.954381752701081,-0.15584736379666247
5.958383353341337,-0.20587159885632156
5.9623849539815925,-0.28407857763261746
5.966386554621849,-0.2707124198889094
5.970388155262105,-0.15485771210562935
5.9743897559023615,-0.07983423041629574
5.978391356542617,-0.09607174641484917
5.982392957182873,-0.16708311458313477
5.98639455782313,-0.12416858198582119
5.990396158463386,-0.029180395574902054
5.9943977591036415,-0.12273826159576115
5.998399359743898,-0.08670168283937423
6.002400960384154,0.003866007852183644
6.00640256102441,-0.02928210381597638
6.010404161664666,0.0704966807649231
6.014405762304922,-0.10016715610262658
6.018407362945179,-0.012438547601576498
6.022408963585434,0.13740134028294765
6.02641056422569,0.004785569702655375
6.030412164865947,-0.017143524952597272
6.034413765506203,-0.042351510298711606
6.038415366146459,0.05947994815962357
6.042416966786715,0.005478498675686828
6.046418567426971,-0.02592307706000366
6.050420168067227,-0.06307012178816797
6.054421768707483,-0.035391501486288605
6.058423369347739,-0.00033245317182255957
6.062424969987996,-0.15669271367766455
6.066426570628251,-0.16346987935758656
6.0704281712685075,-0.06174521096426431
6.074429771908764,-0.05769067167580393
6.07843137254902,-0.20701091023725224
6.082432973189276,-0.17312894374940493
6.086434573829532,-0.16678367727067947
6.090436174469788,-0.12172668276192028
6.094437775110045,-0.16035777824194888
6.0984393757503,-0.21516958765066962
6.1024409763905565,-0.2038188607430401
6.106442577030813,-0.22706170711545426
6.110444177671068,-0.2162779151295627
6.114445778311325,-0.3251767762697181
6.118447378951581,-0.2746606885218208
6.122448979591837,-0.28003834853301934
6.126450580232093,-0.34599045505849946
6.130452180872349,-0.3179999138756856
6.1344537815126055,-0.2250906225461041
6.138455382152862,-0.27181218478348174
6.142456982793117,-0.15146006155189196
6.146458583433374,-0.2518166538865534
6.15046018407363,-0.28514033047035353
6.154461784713885,-0.2386807466332507
6.158463385354142,-0.22333633541854944
6.162464985994398,-0.2814173125182286
6.166466586634654,-0.3168394486156716
6.17046818727491,-0.2175238192407069
6.174469787915166,-0.26157176378928204
6.1784713885554225,-0.20477612607322795
6.182472989195679,-0.22809254372104465
6.186474589835934,-0.1837747606255834
6.190476190476191,-0.19151501511115926
6.194477791116447,-0.20637827148626725
6.1984793917567025,-0.25821384495415983
6.202480992396959,-0.18837062662653656
6.206482593037215,-0.07599769932643391
6.2104841936774715,-0.22328943857073164
6.214485794317727,-0.23350292798097438
6.218487394957983,-0.26438233249452103
6.22248899559824,-0.17100953805037436
6.226490596238496,-0.19342994353603304
6.230492196878751,-0.30188334238886017
6.234493797519008,-0.2168442174429371
6.238495398159264,-0.1473444944274218
6.2424969987995205,-0.230142940606258
6.246498599439776,-0.2815281935627968
6.250500200080032,-0.26149861293268967
6.254501800720289,-0.16802044477175937
6.258503401360544,-0.12731937074671212
6.2625050020008,-0.23474271906845326
6.266506602641057,-0.2979490848149166
6.270508203281313,-0.10844250722203413
6.2745098039215685,-0.030140012631125916
6.278511404561825,-0.15238167792334562
6.282513005202081,-0.3103296922159729
6.286514605842338,-0.3308914771484483
6.290516206482593,-0.1667109143247762
6.294517807122849,-0.10769693305276945
6.298519407763106,-0.23580082409460065
6.302521008403361,-0.16257271884719562
6.3065226090436175,-0.10041382616700378
6.310524209683874,-0.2632376712098453
6.31452581032413,-0.24484763481081095
6.318527410964386,-0.21835806460641913
6.322529011604642,-0.09823832987155137
6.326530612244898,-0.14006620509095066
6.330532212885155,-0.25678852125834095
6.33453381352541,-0.1688014223760021
6.3385354141656665,-0.1549590265480293
6.342537014805923,-0.14731100500749095
6.346538615446179,-0.26495877719915867
6.350540216086435,-0.2840441719305071
6.354541816726691,-0.16366371287804315
6.358543417366947,-0.08127208755916707
6.362545018007203,-0.16693849279843967
6.366546618647459,-0.22761013468594082
6.370548219287715,-0.15771029337508669
6.374549819927972,-0.05966689572781177
6.378551420568227,-0.15116811364461186
6.382553021208484,-0.16907327416324294
6.38655462184874,-0.23746435626936135
6.390556222488996,-0.05442431475424108
6.394557823129252,-0.08101058015181442
6.398559423769508,-0.1170673202556427
6.402561024409764,-0.15641377439253185
6.40656262505002,-0.18280950195025708
6.410564225690276,-0.10364154672470341
6.4145658263305325,-0.23697554661267184
6.418567426970789,-0.15519660714328606
6.422569027611044,-0.038975900132149306
6.426570628251301,-0.0306045709789888
6.430572228891557,-0.2516741015867775
6.434573829531813,-0.13693747481659155
6.438575430172069,-0.04852452303699071
6.442577030812325,-0.01527271550569588
6.4465786314525815,-0.09935808250516034
6.450580232092838,-0.05590209161798855
6.454581832733093,-0.051930806241554606
6.45858343337335,-0.035373712391392684
6.462585034013606,-0.15746884803201966
6.466586634653861,-0.22200843319427424
6.470588235294118,-0.08138583564439306
6.474589835934374,-0.09053328902150223
6.47859143657463,-0.08475602039613445
6.482593037214886,-0.12078198900914024
6.486594637855142,-0.1895313467132074
6.490596238495399,-0.02253263531508891
6.494597839135655,-0.14287277722610922
6.49859943977591,-0.17754911309580446
6.502601040416167,-0.0493605284508164
6.506602641056423,-0.04477885276172313
6.5106042416966785,-0.033827277430386195
6.514605842336935,-0.0991134047592327
6.518607442977191,-0.11463587601819773
6.5226090436174475,0.012770334693056003
6.526610644257703,-0.045100552371975966
6.530612244897959,-0.09530440322733866
6.534613845538216,-0.10216248250036727
6.538615446178472,-0.09480901019160398
6.5426170468187275,0.014167045351081289
6.546618647458984,-0.11499975111356481
6.55062024809924,-0.1705029278965404
6.5546218487394965,0.030706769708187136
6.558623449379752,0.008758634217123855
6.562625050020008,-0.04511660448109869
6.566626650660265,-0.12799525496626146
6.57062825130052,0.028384208561743396
6.574629851940776,-0.02844683269867039
6.578631452581033,-0.1487450880334835
6.582633053221289,-0.07419189414356336
6.586634653861545,-0.0026930491657314592
6.590636254501801,-0.09279502697317807
6.594637855142057,-0.08113627955161563
6.598639455782314,-0.09435277465308875
6.602641056422569,0.0026110643492981067
6.606642657062825,-0.020666088807619304
6.610644257703082,0.007010564093674049
6.614645858343337,-0.09411248283144108
6.6186474589835935,-0.037819329725982065
6.62264905962385,0.0023351424556070713
6.626650660264106,0.04587703285525436
6.630652260904362,-0.06317078309925143
6.634653861544618,0.02317071183087997
6.638655462184874,0.23303556268117068
6.642657062825131,0.39006806014200446
6.646658663465386,0.5804070811114906
6.6506602641056425,0.8593025252590842
6.654661864745899,1.0697510213172456
6.658663465386155,1.24874562192916
6.662665066026411,1.1661783195297637
6.666666666666667,0.8268299694674348
6.670668267306923,0.558590530070396
6.674669867947179,0.30680047704799174
6.678671468587435,0.0383332864703546
6.682673069227691,-0.1667103538921389
6.686674669867948,-0.17917203718510952
6.690676270508203,-0.11144128676318463
6.69467787114846,-0.18168152627393241
6.698679471788716,-0.2811088362114821
6.702681072428972,-0.24336954604269714
6.706682673069228,-0.2742326221948648
6.710684273709484,-0.31607627549255024
6.71468587434974,-0.28730555347906606
6.718687474989996,-0.3441433369624027
6.722689075630252,-0.11051085763233137
6.7266906762705085,-0.11194962618168862
6.730692276910765,-0.25935281471892657
6.73469387755102,-0.11975385820627078
6.738695478191277,0.008072438363960648
6.742697078831533,0.11539857489345634
6.746698679471789,-0.06907699213609061
6.750700280112045,-0.0393281174325915
6.754701880752301,0.02703108440285567
6.7587034813925575,0.1494235351614421
6.762705082032813,0.03751782229352389
6.766706682673069,0.027813004321333525
6.770708283313326,0.05216873891010569
6.774709883953582,0.08029238614170768
6.778711484593837,0.12045037215202176
6.782713085234094,0.041438175451032275
6.78671468587435,0.14098762699984077
6.7907162865146065,0.23273244250244274
6.794717887154862,0.16886231787031275
6.798719487795118,0.11922744934833066
6.802721088435375,0.13403069581283492
6.806722689075631,0.26050897121007566
6.810724289715886,0.1753857057166708
6.814725890356143,0.19577971742477612
6.818727490996399,0.2560129240477029
6.8227290916366545,0.29625851799971453
6.826730692276911,0.35407579732249905
6.830732292917167,0.34397234718203734
6.834733893557424,0.30844238116983014
6.838735494197679,0.4721454887890352
6.842737094837935,0.38481784880784503
6.846738695478192,0.2891525895740017
6.850740296118448,0.3627320519657406
6.8547418967587035,0.3568416334722956
6.85874349739896,0.4280540759182967
6.862745098039216,0.357530831655284
6.866746698679472,0.31612818904357065
6.870748299319728,0.44635149283347236
6.874749899959984,0.39639223597717477
6.878751500600241,0.3964711837925069
6.882753101240496,0.3514039912360022
6.8867547018807524,0.35004858726669497
6.890756302521009,0.3821544330629214
6.894757903161265,0.37446276455296434
6.898759503801521,0.25803272013420064
6.902761104441777,0.2043653265430407
6.906762705082033,0.3584413934239487
6.91076430572229,0.276718775029859
6.914765906362545,0.17874231689741504
6.918767507002801,0.12003112197545264
6.922769107643058,0.3246108783110443
6.926770708283313,0.2017605952813828
6.9307723089235695,0.16813704951514483
6.934773909563826,0.1826044682796359
6.938775510204082,0.26918917270560294
6.942777110844338,0.14251519123928386
6.946778711484594,0.11213978082072958
6.95078031212485,0.10684907357331594
6.954781912765107,0.13307309264779543
6.958783513405362,0.11641739314660277
6.9627851140456185,0.1462005726974997
6.966786714685875,0.14540324404521943
6.97078831532613,0.16334966944286256
6.974789915966387,0.11590759410351306
6.978791516606643,0.11292472566054053
6.982793117246899,0.11892423999460006
6.986794717887155,0.16670461165117112
6.990796318527411,0.25432931264083775
6.9947979191676675,0.16369604426587964
6.998799519807924,0.18010519434403266
7.002801120448179,0.19787266891710703
7.006802721088436,0.32121753116108714
7.010804321728692,0.14617950110559313
7.014805922368948,0.14061137217919434
7.018807523009204,0.14914890963712327
7.02280912364946,0.2726716236834428
7.026810724289716,0.18632392402951015
7.030812324929972,0.1479444157440705
7.034813925570228,0.08941415580801469
7.038815526210485,0.28597099964348893
7.042817126850741,0.1875216105418412
7.046818727490996,0.14917669800570812
7.050820328131253,0.16255705161211484
7.054821928771509,0.22671148100833832
7.058823529411765,0.2190599200000311
7.062825130052021,0.21680152227735308
7.066826730692277,0.2058467781021997
7.0708283313325335,0.2635532869385551
7.074829931972789,0.21766527135282437
7.078831532613045,0.18483957837990803
7.082833133253302,0.19802762238441463
7.086834733893558,0.17730666103557166
7.0908363345338135,0.30441226335561433
7.09483793517407,0.1594347381356942
7.098839535814326,0.09669960550107598
7.1028411364545825,0.1517108678983779
7.106842737094838,0.3108919947219209
7.110844337735094,0.22270698437948383
7.114845938375351,0.25022078158860694
7.118847539015607,0.22169982231210963
7.122849139655862,0.24577005472926663
7.126850740296119,0.29538808697273944
7.130852340936375,0.13511604112140962
7.1348539415766306,0.14686609336648265
7.138855542216887,0.2809544906458997
7.142857142857143,0.24504692549237342
7.1468587434974,0.23421351379200128
7.150860344137655,0.1958037918793961
7.154861944777911,0.19625932471001425
7.158863545418168,0.1980751872728223
7.162865146058424,0.2986333590085987
7.1668667466986795,0.15858191840552663
7.170868347338936,0.31365384586442435
7.174869947979192,0.25160591120657116
7.178871548619448,0.1980995781746975
7.182873149259704,0.19027590065770805
7.18687474989996,0.2686195760582575
7.190876350540217,0.2990692430015469
7.194877951180472,0.2750136619793905
7.1988795518207285,0.20509140952558988
7.202881152460985,0.339202191775942
7.206882753101241,0.36549767513198783
7.210884353741497,0.28664551938983845
7.214885954381753,0.2370405261632595
7.218887555022009,0.2534468353052816
7.222889155662265,0.3111515761017516
7.226890756302521,0.28851125469393285
7.230892356942777,0.13502148681567014
7.234893957583034,0.21583179789766052
7.238895558223289,0.29961965904814897
7.242897158863546,0.33908326180900566
7.246898759503802,0.26384240966219885
7.250900360144058,0.2849685808243745
7.254901960784314,0.2572547911855239
7.25890356142457,0.29527715133129395
7.262905162064826,0.2250730763628186
7.266906762705083,0.12124611014842163
7.270908363345338,0.18410355374812148
7.2749099639855945,0.40266904105388335
7.278911564625851,0.3042004974232049
7.282913165266106,0.20204141990840357
7.286914765906363,0.32810380591335875
7.290916366546619,0.3079982417827114
7.294917967186875,0.30053407920238606
7.298919567827131,0.2749750662208945
7.302921168467387,0.298446614562265
7.3069227691076435,0.24543553845254332
7.3109243697479,0.33346228887029855
7.314925970388155,0.2194870583500838
7.318927571028412,0.31670340070355396
7.322929171668668,0.24197249560483594
7.326930772308923,0.2755648423395702
7.33093237294918,0.19786453805304333
7.334933973589436,0.2380241843947619
7.3389355742296924,0.3214209414639326
7.342937174869948,0.3153330174942352
7.346938775510204,0.2479562823461826
7.350940376150461,0.315523847352911
7.354941976790717,0.35268235241845025
7.358943577430972,0.35896837830729
7.362945178071229,0.34118192531315217
7.366946778711485,0.30103381045558797
7.370948379351741,0.33406967400568494
7.374949979991997,0.2933344843139656
7.378951580632253,0.200709553134049
7.3829531812725095,0.23162458776436634
7.386954781912765,0.28606093364877677
7.390956382553021,0.3488988009883557
7.394957983193278,0.36409263593309976
7.398959583833534,0.23935354316310195
7.4029611844737895,0.30982249245818677
7.406962785114046,0.42144510174356525
7.410964385754302,0.25613183227358355
7.4149659863945585,0.2808776649840722
7.418967587034814,0.3023501735388516
7.42296918767507,0.3446687657460831
7.426970788315327,0.3314753126740371
7.430972388955582,0.20456973270021594
7.434973989595838,0.29080271909903016
7.438975590236095,0.30664090737560656
7.442977190876351,0.3136398615714729
7.446978791516607,0.19720291176806518
7.450980392156863,0.2357801536675927
7.454981992797119,0.3061252901518269
7.458983593437376,0.41055273711498985
7.462985194077631,0.2862237404005905
7.466986794717887,0.3534905603003634
7.470988395358144,0.46494069129830934
7.4749899959984,0.8015490646232528
7.4789915966386555,0.8844922126734341
7.482993197278912,1.0713413331379846
7.486994797919168,1.3957192133194032
7.490996398559424,1.5165266472357797
7.49499799919968,1.4276533618334146
7.498999599839936,1.1035804872982642
7.503001200480193,0.9103075141956224
7.507002801120448,0.5392324546886668
7.5110044017607045,0.34288876631345205
7.515006002400961,0.11932023357774006
7.519007603041217,0.16579105447752396
7.523009203681473,0.12776397941539133
7.527010804321729,0.0738438490974224
7.531012404961985,0.10668586674693789
7.535014005602241,0.02045789539874412
7.539015606242497,0.06782719775497943
7.5430172068827535,-0.045827150128809085
7.54701880752301,-0.035342564719105525
7.551020408163265,0.054506312207405545
7.555022008803522,0.2045568338095047
7.559023609443778,0.0724133610638148
7.563025210084034,0.06346760421587413
7.56702681072429,0.128927957659923
7.571028411364546,0.18191416733366517
7.575030012004802,0.2718105576415867
7.579031612645059,0.20847920145103369
7.583033213285314,0.27202819324641264
7.5870348139255706,0.24220883730662304
7.591036414565827,0.25112729801084094
7.595038015206082,0.2610452680663866
7.599039615846339,0.2873603362296758
7.603041216486595,0.27904434789988114
7.607042817126851,0.35069808706548516
7.611044417767107,0.31566135063424816
7.615046018407363,0.3484970615129866
7.6190476190476195,0.3341653274082229
7.623049219687876,0.3526865446645555
7.627050820328131,0.4888995146775328
7.631052420968388,0.305076398509673
7.635054021608644,0.2666678475450592
7.6390556222488994,0.35605224119360146
7.643057222889156,0.45867445485763575
7.647058823529412,0.33947210884738377
7.6510604241696685,0.4605311115417737
7.655062024809924,0.4569321065790578
7.65906362545018,0.46872230288030586
7.663065226090437,0.46547510440930184
7.667066826730693,0.4210535785406421
7.671068427370948,0.525416999511019
7.675070028011205,0.6831252112908266
7.679071628651461,0.5365288288838215
7.6830732292917165,0.5086837434616582
7.687074829931973,0.5853632464945295
7.691076430572229,0.6160647260577476
7.695078031212486,0.5827373491710935
7.699079631852741,0.5249835752753497
7.703081232492997,0.5279501390207969
7.707082833133254,0.5922683697107792
7.71108443377351,0.413157051117263
7.7150860344137655,0.5085988918757859
7.719087635054022,0.4471611668575953
7.723089235694278,0.5534860663770498
7.7270908363345345,0.5535167534297301
7.73109243697479,0.45313562729825796
7.735094037615046,0.3748167001220923
7.739095638255303,0.40501659826158465
7.743097238895558,0.38287194568777805
7.7470988395358145,0.4033661292389269
7.751100440176071,0.37124321169666896
7.755102040816327,0.35721253040493495
7.759103641456583,0.38046614851479554
7.763105242096839,0.42201025136136844
7.767106842737095,0.2717163656171998
7.771108443377352,0.36346364516495283
7.775110044017607,0.3656101580962904
7.779111644657863,0.2404425865276184
7.78311324529812,0.26678398518420526
7.787114845938375,0.3337996095128891
7.791116446578632,0.3015808099190173
7.795118047218888,0.34725534390169593
7.799119647859144,0.24367167099654186
7.8031212484994,0.30612369159602115
7.807122849139656,0.3028477372159253
7.811124449779912,0.2649711805160188
7.815126050420169,0.26342794633608646
7.819127651060424,0.33055710125532256
7.8231292517006805,0.3101203022077984
7.827130852340937,0.34062130761574483
7.831132452981193,0.25589325660689605
7.835134053621449,0.2330058965498395
7.839135654261705,0.23050051223172555
7.843137254901961,0.30899150250271645
7.847138855542217,0.20820244207229383
7.851140456182473,0.260879138742343
7.8551420568227295,0.31169558701700156
7.859143657462986,0.26503983648780455
7.863145258103241,0.1841705507324966
7.867146858743498,0.07133962921022845
7.871148459383754,0.13607542514095916
7.87515006002401,0.28758875580301707
7.879151660664266,0.2927730711270717
7.883153261304522,0.0987769558427666
7.887154861944778,0.2568334626238413
7.891156462585034,0.2374921065200105
7.89515806322529,0.2531857686520153
7.899159663865547,0.20183322954271782
7.903161264505803,0.2669511034691375
7.907162865146058,0.2112665372635746
7.911164465786315,0.2168799837959505
7.915166066426571,0.19736869372503033
7.919167667066827,0.24026736788508654
7.923169267707083,0.32914998578678667
7.927170868347339,0.21783167018193353
7.9311724689875955,0.21876637589466866
7.935174069627852,0.24687981522417532
7.939175670268107,0.303860400345343
7.943177270908364,0.18635887135233145
7.94717887154862,0.21804359357107095
7.9511804721888755,0.09548581506496737
7.955182072829132,0.23900099437515185
7.959183673469388,0.20915103034927465
7.9631852741096445,0.15625421993759894
7.9671868747499,0.14552923159504152
7.971188475390156,0.271971837608772
7.975190076030413,0.1498479343923456
7.979191676670669,0.119299913278784
7.983193277310924,0.11712521792687888
7.987194877951181,0.24428309960411682
7.991196478591437,0.3382422526726932
7.995198079231693,0.12046464432295619
7.999199679871949,0.1348217077278036
8.003201280512204,0.17601403741637375
8.00720288115246,0.20449763835867046
8.011204481792717,0.2253786522057791
8.015206082432973,0.0637891121047497
8.01920768307323,0.14335083654263242
8.023209283713486,0.25471854571048136
8.027210884353742,0.22442648901183893
8.031212484993999,0.14166699723485268
8.035214085634253,0.10709892467131352
8.03921568627451,0.3194526735033926
8.043217286914766,0.19958079207214696
8.047218887555022,0.12893898140630805
8.051220488195279,0.05582538927474838
8.055222088835535,0.17653111680540806
8.059223689475791,0.10916357380901298
8.063225290116046,0.11909018276518016
8.067226890756302,0.18973484959846895
8.071228491396559,0.22682180196170834
8.075230092036815,0.17603888319641608
8.079231692677071,0.0693842518593713
8.083233293317328,0.11200561378281657
8.087234893957584,0.216645355884821
8.09123649459784,0.2250624558631786
8.095238095238095,0.12711841256303563
8.099239695878351,0.07553191323488495
8.103241296518608,0.09610264344832754
8.107242897158864,0.23551491499349658
8.11124449779912,0.1330443149368057
8.115246098439377,0.11286867437954858
8.119247699079633,0.19416548291284763
8.123249299719888,0.2105158772411474
8.127250900360144,0.04055793068150704
8.1312525010004,-0.007370997914048424
8.135254101640657,0.15630396740053615
8.139255702280913,0.08868614593053763
8.14325730292117,0.19209963385969003
8.147258903561426,0.03542962472817281
8.15126050420168,0.008723047707717133
8.155262104841936,0.22480224052145253
8.159263705482193,0.12576825855364981
8.16326530612245,0.052336256199457164
8.167266906762706,-0.08902304025946176
8.171268507402962,0.16506698100154543
8.175270108043218,0.11951814049282364
8.179271708683475,0.0293938887637769
8.183273309323729,0.047344608183703604
8.187274909963985,0.11071966229834787
8.191276510604242,0.14377612974433956
8.195278111244498,0.016403777772302876
8.199279711884754,0.0998119956309001
8.20328131252501,0.031507872729642734
8.207282913165267,0.19563904355963985
8.211284513805522,0.09842706081814351
8.215286114445778,-0.004224850268849244
8.219287715086034,0.05709903972724782
8.22328931572629,0.06874018849322822
8.227290916366547,-0.027083891536583922
8.231292517006803,0.03293570532546274
8.23529411764706,0.04296622929498277
8.239295718287316,0.1365098298603785
8.24329731892757,0.07618380228550281
8.247298919567827,0.05721233745828978
8.251300520208083,-0.012712325316448635
8.25530212084834,0.1421105096788874
8.259303721488596,0.11428205276475015
8.263305322128852,0.020424900737206247
8.267306922769109,-0.03568542180625531
8.271308523409363,0.02459883550825203
8.27531012404962,0.04734292990964068
8.279311724689876,0.010210481385299924
8.283313325330132,-0.061388752256587124
8.287314925970389,0.027842503687937364
8.291316526610645,0.04252253488830065
8.295318127250901,0.06046475091834995
8.299319727891156,0.0818057247732185
8.303321328531412,0.12246403760293527
8.307322929171669,0.39449725648011236
8.311324529811925,0.5681996873966042
8.315326130452181,0.8357091955972333
8.319327731092438,1.0800963196192104
8.323329331732694,1.1519282382719167
8.32733093237295,1.120986702530441
8.331332533013205,0.7554441099467302
8.335334133653461,0.4435415095292646
8.339335734293718,0.3511989401496929
8.343337334933974,0.04976011359887951
8.34733893557423,-0.10431209485880599
8.351340536214487,-0.23963812455714048
8.355342136854743,-0.18015300622626748
8.359343737494997,-0.2126665983180741
8.363345338135254,-0.23317595980865016
8.36734693877551,-0.31209056004512686
8.371348539415767,-0.2314781386330015
8.375350140056023,-0.31375243067660746
8.37935174069628,-0.30055716378433284
8.383353341336536,-0.3947728838264768
8.387354941976792,-0.28919517371531905
8.391356542617046,-0.2338905364651361
8.395358143257303,-0.23830632441717184
8.39935974389756,-0.12704371071489448
8.403361344537815,-0.1460447627880694
8.407362945178072,-0.017354032750070983
8.411364545818328,-0.13537366181019156
8.415366146458584,-0.19452628462327842
8.419367747098839,0.05000853459882325
8.423369347739095,-0.03193714521623053
8.427370948379352,-0.05558204305623422
8.431372549019608,-0.050620345161329
8.435374149659864,0.046353815189405165
8.43937575030012,0.08388538214581442
8.443377350940377,-0.01811191357729236
8.447378951580633,-0.10170151600425098
8.451380552220888,-0.06790640306162196
8.455382152861144,-0.013196183251570077
8.4593837535014,0.030040121548030187
8.463385354141657,-0.11383126794505125
8.467386954781913,0.03328415055751972
8.47138855542217,0.09504869031276005
8.475390156062426,0.18987566945612017
8.47939175670268,0.115607279484371
8.483393357342937,0.0780868564759033
8.487394957983193,0.15730914289559264
8.49139655862345,0.2978697079456512
8.495398159263706,0.14458237028436866
8.499399759903962,0.08979020229782757
8.503401360544219,0.13751727321648646
8.507402961184473,0.14729379326508765
8.51140456182473,0.18938871902120655
8.515406162464986,0.09760372103271805
8.519407763105242,0.23113569871468123
8.523409363745499,0.26022342582145874
8.527410964385755,0.16503824805656647
8.531412565026011,0.10682332159785665
8.535414165666268,0.2044298738605077
8.539415766306522,0.22285560284418077
8.543417366946779,0.13876062915909154
8.547418967587035,0.0833437476541951
8.551420568227291,-0.07508211320917074
8.555422168867548,0.11480813602918767
8.559423769507804,0.11401611461285788
8.56342537014806,0.02261059636174681
8.567426970788315,-0.016936332343550665
8.571428571428571,0.0722710756215066
8.575430172068828,-0.04295366614419104
8.579431772709084,-0.06354090215773786
8.58343337334934,-0.11858902926655052
8.587434973989597,-0.07123428732547596
8.591436574629853,-0.046917536049866565
8.59543817527011,-0.13235772714344182
8.599439775910364,-0.23734400143666495
8.60344137655062,-0.1224764031180156
8.607442977190876,-0.038228068040007564
8.611444577831133,-0.0898276585445922
8.61544617847139,-0.10629912447968935
8.619447779111646,-0.19434814365116565
8.623449379751902,-0.13316314107664787
8.627450980392156,-0.1862288078743111
8.631452581032413,-0.2949543341950878
8.635454181672669,-0.1856608976928517
8.639455782312925,-0.13889107058598776
8.643457382953182,-0.1550229366924991
8.647458983593438,-0.258967744994514
8.651460584233694,-0.14782429712906098
8.65546218487395,-0.08341912609384523
8.659463785514205,-0.028019835985720137
8.663465386154462,-0.18705580870277536
8.667466986794718,-0.2228570869068885
8.671468587434974,-0.19669382336799773
8.67547018807523,-0.1895003298627574
8.679471788715487,-0.11389989308543202
8.683473389355743,-0.18857181864452427
8.687474989995998,-0.1537407486510091
8.691476590636254,-0.12592774683975033
8.69547819127651,-0.20460885324772957
8.699479791916767,-0.2330479230043234
8.703481392557023,-0.23567436887511273
8.70748299319728,-0.007382797697539287
8.711484593837536,-0.09731179273217497
8.71548619447779,-0.2594655649992809
8.719487795118047,-0.1291068182696547
8.723489395758303,-0.04407912990933666
8.72749099639856,-0.1768418835614441
8.731492597038816,-0.22789374452903105
8.735494197679072,-0.1258832855779992
8.739495798319329,-0.19379815003204498
8.743497398959585,-0.26754084720149207
8.74749899959984,-0.20403281602496354
8.751500600240096,-0.22839215393961615
8.755502200880352,-0.14292777799087178
8.759503801520609,-0.09954800283100648
8.763505402160865,-0.20124502156425395
8.767507002801121,-0.37577230695056973
8.771508603441378,-0.17018124804276258
8.775510204081632,-0.2086371030346784
8.779511804721889,-0.21558319248786584
8.783513405362145,-0.26043160514865793
8.787515006002401,-0.20467478424944213
8.791516606642658,-0.15912172216395346
8.795518207282914,-0.22824142322377272
8.79951980792317,-0.24397247650831663
8.803521408563427,-0.2937324955550884
8.807523009203681,-0.21615287671197506
8.811524609843937,-0.15877615976433238
8.815526210484194,-0.15688433228074258
8.81952781112445,-0.27912667824283866
8.823529411764707,-0.22099850551121317
8.827531012404963,-0.1968887118063379
8.83153261304522,-0.3638759991981747
8.835534213685474,-0.2509341701153898
8.83953581432573,-0.1613637366765625
8.843537414965986,-0.23735747987805933
8.847539015606243,-0.29067446722822077
8.8515406162465,-0.28860206239286457
8.855542216886755,-0.24636575392642943
8.859543817527012,-0.19801416176557912
8.863545418167266,-0.2977672557587144
8.867547018807523,-0.19760913069862504
8.871548619447779,-0.18959145925806908
8.875550220088035,-0.19565940105189894
8.879551820728292,-0.265090547513865
8.883553421368548,-0.3553164716419303
8.887555022008804,-0.3245167741543031
8.89155662264906,-0.21403659063032054
8.895558223289315,-0.2630338117781565
8.899559823929572,-0.31914037791404193
8.903561424569828,-0.29834676838823365
8.907563025210084,-0.213822025288666
8.91156462585034,-0.25407656005679913
8.915566226490597,-0.2856259089305775
8.919567827130853,-0.30160168919342156
8.923569427771108,-0.24496030768845736
8.927571028411364,-0.21274271224118402
8.93157262905162,-0.3587122150542485
8.935574229691877,-0.28462439608066686
8.939575830332133,-0.23204729788480494
8.94357743097239,-0.18995821350759112
8.947579031612646,-0.3303775550599089
8.951580632252902,-0.36267320830476796
8.955582232893157,-0.2153474431797267
8.959583833533413,-0.23548939706265745
8.96358543417367,-0.21947882800160107
8.967587034813926,-0.349721130957706
8.971588635454182,-0.23268785323040422
8.975590236094439,-0.22629655069074794
8.979591836734695,-0.3599415634567999
8.98359343737495,-0.3545529734095618
8.987595038015206,-0.23635707973900727
8.991596638655462,-0.24943868321695023
8.995598239295719,-0.3057390983532761
8.999599839935975,-0.26571611648025867
9.003601440576231,-0.22388367000323595
9.007603041216488,-0.2438688489302332
9.011604641856744,-0.2606005394561166
9.015606242496998,-0.3525182226303656
9.019607843137255,-0.25029058159162765
9.023609443777511,-0.1646601243327192
9.027611044417768,-0.19143513091161427
9.031612645058024,-0.2933213598387513
9.03561424569828,-0.21793163107270463
9.039615846338537,-0.25463890767026764
9.043617446978791,-0.29622641030871544
9.047619047619047,-0.3401924890756922
9.051620648259304,-0.42035862879909297
9.05562224889956,-0.2454131616869715
9.059623849539816,-0.2944692260134372
9.063625450180073,-0.32586860408824125
9.06762705082033,-0.3559079434489385
9.071628651460584,-0.217629258604242
9.07563025210084,-0.26318248104763453
9.079631852741096,-0.26277185045522905
9.083633453381353,-0.3477253691114277
9.087635054021609,-0.28002478658979124
9.091636654661865,-0.2769560370733685
9.095638255302122,-0.29901766029044735
9.099639855942378,-0.22788461619170441
9.103641456582633,-0.26582848169507656
9.107643057222889,-0.30848512057304234
9.111644657863145,-0.29929378342375973
9.115646258503402,-0.37549531812517406
9.119647859143658,-0.39489978675560133
9.123649459783914,-0.3161861851912792
9.12765106042417,-0.19356830888565196
9.131652661064425,-0.17917810345780957
9.135654261704682,-0.2187447731927717
9.139655862344938,0.038349393139617924
9.143657462985194,0.31775701091284003
9.14765906362545,0.4829419375505506
9.151660664265707,0.7389846011680803
9.155662264905963,0.859516829649255
9.15966386554622,0.7436439494519724
9.163665466186474,0.5664486817490335
9.16766706682673,0.15403649431511762
9.171668667466987,-0.09127202805361898
9.175670268107243,-0.25372358265931266
9.1796718687475,-0.33368779154698475
9.183673469387756,-0.4907063700143311
9.187675070028012,-0.5085966187560924
9.191676670668267,-0.38058002151781495
9.195678271308523,-0.584698479974727
9.19967987194878,-0.5484515712702553
9.203681472589036,-0.6329286193086203
9.207683073229292,-0.465200461781859
9.211684673869549,-0.6101283160909948
9.215686274509805,-0.691404767695705
9.219687875150061,-0.5667084738270098
9.223689475790316,-0.45460059536809094
9.227691076430572,-0.39461138878752655
9.231692677070829,-0.35651319184369545
9.235694277711085,-0.4989957318124447
9.239695878351341,-0.34053394881261406
9.243697478991598,-0.23163560735026306
9.247699079631854,-0.2926690129652613
9.251700680272108,-0.3315083915727214
9.255702280912365,-0.21966590994561105
9.259703881552621,-0.2975226771575458
9.263705482192877,-0.24337633469572012
9.267707082833134,-0.3008325694252745
9.27170868347339,-0.2763849279673862
9.275710284113647,-0.25915962532677367
9.279711884753901,-0.28559140099017627
9.283713485394157,-0.29460075090617155
9.287715086034414,-0.18837058766974274
9.29171668667467,-0.10822306173792812
9.295718287314926,-0.22827841854873213
9.299719887955183,-0.30917564388336044
9.30372148859544,-0.11204096870892441
9.307723089235695,-0.05580828174648837
9.31172468987595,-0.16012546966767932
9.315726290516206,-0.1361860150739943
9.319727891156463,-0.07171327297714267
9.323729491796719,-0.06624512392438055
9.327731092436975,-0.027460164027966884
9.331732693077232,-0.09473250190932955
9.335734293717488,-0.013839117693057693
9.339735894357743,0.028838205867497795
9.343737494997999,-0.06199454367789241
9.347739095638255,0.025362259766851164
9.351740696278512,-0.06622322167670813
9.355742296918768,0.0039370703560057604
9.359743897559024,0.08067430560775016
9.36374549819928,-0.08369731079318173
9.367747098839537,-0.03783952756059866
9.371748699479792,0.024068256277126554
9.375750300120048,0.018119294986104657
9.379751900760304,-0.03077723334967307
9.38375350140056,0.04369698709983972
9.387755102040817,-0.027819882410183447
9.391756702681073,0.031788561945053535
9.39575830332133,-0.07694743561846934
9.399759903961584,-0.0973052700149036
9.40376150460184,-0.11818759501164146
9.407763105242097,-0.04087617313964964
9.411764705882353,-0.12570788706529903
9.41576630652261,-0.25978190389927036
9.419767907162866,-0.13003638407510806
9.423769507803122,-0.23664520488543273
9.427771108443377,-0.2208594462038603
9.431772709083633,-0.32271489486473365
9.43577430972389,-0.21675398352585934
9.439775910364146,-0.14534561763770876
9.443777511004402,-0.25900989688585496
9.447779111644659,-0.25339177239593996
9.451780712284915,-0.2531236478546963
9.455782312925171,-0.23355329802260857
9.459783913565426,-0.1835379804466073
9.463785514205682,-0.2695802273288975
9.467787114845938,-0.2777280076351309
9.471788715486195,-0.1759245411292929
9.475790316126451,-0.23413191948158532
9.479791916766708,-0.23808306577019017
9.483793517406964,-0.2518721931007069
9.487795118047218,-0.3174360883474494
9.491796718687475,-0.15248109778483918
9.495798319327731,-0.277966075910815
9.499799919967987,-0.3214451522699915
9.503801520608244,-0.24056037264560892
9.5078031212485,-0.22885671279367542
9.511804721888756,-0.2693096410909709
9.515806322529013,-0.4034732320098141
9.519807923169267,-0.2672572699709415
9.523809523809524,-0.1819830796969789
9.52781112444978,-0.24888118251599878
9.531812725090036,-0.3140860183011331
9.535814325730293,-0.23694013153302296
9.539815926370549,-0.20027204016248082
9.543817527010805,-0.1954413328404814
9.54781912765106,-0.22165606589356635
9.551820728291316,-0.3160182129103042
9.555822328931573,-0.1883680716704873
9.559823929571829,-0.12808936632047882
9.563825530212085,-0.19399348092869423
9.567827130852342,-0.29067547813606015
9.571828731492598,-0.15091540036810797
9.575830332132854,-0.13373553115955075
9.579831932773109,-0.17167881708258953
9.583833533413365,-0.2329150555895524
9.587835134053622,-0.20651136248946111
9.591836734693878,-0.061922503469014255
9.595838335334134,-0.20654355815133796
9.59983993597439,-0.2979278174906117
9.603841536614647,-0.20597000651069466
9.607843137254902,-0.15726330466698094
9.611844737895158,-0.2161147865692818
9.615846338535414,-0.20192984184523538
9.61984793917567,-0.2131411324481658
9.623849539815927,-0.2088940621939594
9.627851140456183,-0.25413813162746707
9.63185274109644,-0.19293500698982324
9.635854341736694,-0.2656152400697571
9.63985594237695,-0.25552477595950573
9.643857543017207,-0.09795574845456108
9.647859143657463,-0.23906220955992705
9.65186074429772,-0.20870129368808094
9.655862344937976,-0.1554437495095307
9.659863945578232,-0.17124833412887075
9.663865546218489,-0.2676963111642145
9.667867146858743,-0.19203639293066016
9.671868747499,-0.0983332909315688
9.675870348139256,-0.1543335567994683
9.679871948779512,-0.13092799403953373
9.683873549419769,-0.27061476817956515
9.687875150060025,-0.08316124880786632
9.691876750700281,-0.16211284316244348
9.695878351340536,-0.14746001246822218
9.699879951980792,-0.22427392477163566
9.703881552621048,-0.12105377626055346
9.707883153261305,-0.08934040661050598
9.711884753901561,-0.16043719505626922
9.715886354541817,-0.19765497522460113
9.719887955182074,-0.15621176392830474
9.72388955582233,-0.12027789701535893
9.727891156462585,-0.18631399670491455
9.731892757102841,-0.30393528499400824
9.735894357743097,-0.1383496514696102
9.739895958383354,-0.11032532032772208
9.74389755902361,-0.1170720572999267
9.747899159663866,-0.23324340919299363
9.751900760304123,-0.21284294307884738
9.755902360944377,-0.1000454598193461
9.759903961584634,-0.08508968885380391
9.76390556222489,-0.20858730546080564
9.767907162865146,-0.1579696463762154
9.771908763505403,-0.10288830628533704
9.775910364145659,0.03060749903123383
9.779911964785915,-0.17409662690750832
9.78391356542617,-0.16851237846464212
9.787915166066426,-0.03187383439081852
9.791916766706683,-0.02762834873545565
9.795918367346939,-0.23795585437731379
9.799919967987195,-0.2057111808150288
9.803921568627452,-0.13941838642002774
9.807923169267708,-0.04695301610264173
9.811924769907964,-0.07814615317022403
9.815926370548219,-0.17883643474375882
9.819927971188475,-0.11988106523180925
9.823929571828732,-0.07485045746552907
9.827931172468988,-0.05195312772789747
9.831932773109244,-0.06090999649939599
9.8359343737495,-0.0990267564187133
9.839935974389757,-0.06949834251672629
9.843937575030012,0.0005041099862202504
9.847939175670268,-0.01897354780687703
9.851940776310524,-0.09520062098096145
9.85594237695078,-0.09034432328055211
9.859943977591037,0.10699780029281503
9.863945578231293,0.00044922248057147063
9.86794717887155,-0.10964709514565343
9.871948779511806,-0.06668667192436509
9.87595038015206,-0.07584232274787552
9.879951980792317,-0.02480744912035885
9.883953581432573,-0.19909338571725252
9.88795518207283,-0.09571032494609327
9.891956782713086,-0.004385301278759468
9.895958383353342,-0.04521619472036574
9.899959983993599,-0.1562378833062972
9.903961584633853,-0.05498438784466449
9.90796318527411,-0.03278845792890524
9.911964785914366,0.02560069713849895
9.915966386554622,-0.036718538338468866
9.919967987194878,-0.017318783044529017
9.923969587835135,-0.03937424933683641
9.927971188475391,-0.021329351361486778
9.931972789115648,-0.08290314334668003
9.935974389755902,-0.03060816301912315
9.939975990396158,-0.09044672471670326
9.943977591036415,-0.07756297423457509
9.947979191676671,-0.04809122339961891
9.951980792316927,-0.15832023381994223
9.955982392957184,0.06674528082216687
9.95998399359744,-0.05698811358177202
9.963985594237695,0.012628783834680593
9.967987194877951,0.15031782635627294
9.971988795518207,0.29774998355502647
9.975990396158464,0.6018606485849306
9.97999199679872,0.7812174377116102
9.983993597438976,1.0625595564533385
9.987995198079233,1.1513282535493603
9.991996798719487,1.0919523643371019
9.995998399359744,0.8292762327913203
10.0,0.5019781090820293
